200.057	-6.04503
203.219	-6.20819
206.378	-4.47286
209.539	0.721031
212.696	6.59987
215.854	8.11501
219.009	3.27918
222.165	10.6394
225.318	15.0493
228.472	19.5945
231.622	-3.31671
234.774	2.51012
237.923	-2.94466
241.07	2.96717
244.217	-1.878
247.364	1.34778
250.508	-3.40351
253.652	-2.54115
256.794	-0.905751
259.937	-8.57572
263.077	2.97205
266.216	7.50053
269.354	11.6174
272.491	14.3709
275.626	28.3133
278.761	41.1224
281.895	55.3031
285.027	60.1922
288.159	64.6225
291.287	75.5321
294.417	81.7239
297.545	83.1022
300.672	76.7296
303.799	70.7072
306.922	82.2705
310.046	83.3227
313.169	65.9977
316.289	62.5339
319.41	68.7286
322.528	62.8795
325.647	64.6234
328.764	56.329
331.879	67.0647
334.993	60.6051
338.107	69.209
341.219	74.2046
344.332	87.0311
347.441	98.1431
350.549	98.4893
353.659	105.452
356.765	113.495
359.87	85.6772
362.975	90.0504
366.078	75.8376
369.18	81.5128
372.281	65.4623
375.383	58.0926
378.482	46.5083
381.58	33.1661
384.675	17.1182
387.771	17.7781
390.865	35.9496
393.959	61.1688
397.052	95.6921
400.144	114.991
403.234	128.732
406.322	137.934
409.411	135.202
412.498	129.003
415.583	128.363
418.668	111.741
421.75	121.547
424.834	133.947
427.916	158.335
430.996	154.826
434.074	181.269
437.153	182.479
440.229	172.749
443.306	167.443
446.381	133.905
449.454	107.051
452.526	101.367
455.599	91.3391
458.669	102.704
461.738	175.916
464.806	279.756
467.873	420.191
470.939	562.02
474.004	653.735
477.067	672.544
480.13	643.015
483.192	558.543
486.253	467.777
489.313	387.933
492.369	318.755
495.427	271.053
498.484	214.001
501.54	186.062
504.592	165.208
507.646	147.546
510.698	129.639
513.748	141.658
516.799	134.155
519.846	122.332
522.895	112.243
525.94	99.8039
528.985	88.55
532.03	64.1979
535.073	72.559
538.114	38.4704
541.157	37.7827
544.196	25.6109
547.234	20.1307
550.272	18.9272
553.308	34.2433
556.344	45.7441
559.378	48.4777
562.411	61.7584
565.444	82.853
568.475	91.9766
571.505	106.517
574.535	116.295
577.563	108.015
580.588	101.716
583.615	95.494
586.64	71.1046
589.662	52.9065
592.686	51.561
595.708	38.6522
598.727	42.1522
601.747	43.9678
604.765	48.7956
607.783	42.0466
610.798	51.9935
613.813	36.3277
616.828	33.7071
619.84	31.2852
622.851	29.4258
625.862	19.9364
628.873	9.71762
631.881	8.54215
634.889	7.71035
637.895	3.41503
640.9	6.85396
643.904	6.25574
646.908	17.1872
649.91	3.377
652.909	2.56555
655.91	8.89807
658.909	-4.57501
661.907	8.6077
664.903	12.0073
667.899	9.17225
670.895	7.98455
673.887	0.334937
676.88	-6.68442
679.871	-14.1937
682.862	-8.80157
685.851	-12.1968
688.84	-5.93352
691.827	-8.22115
694.812	2.19766
697.799	-0.801544
700.782	15.2353
703.765	14.1328
706.746	23.2009
709.727	33.3959
712.706	44.7011
715.685	41.1232
718.663	38.6373
721.639	36.2261
724.615	22.3831
727.59	13.6266
730.563	7.62902
733.536	13.7264
736.506	17.9804
739.477	11.6949
742.446	19.4695
745.413	23.1427
748.381	25.8938
751.346	39.8316
754.312	49.7115
757.275	69.2411
760.239	56.2675
763.2	67.618
766.16	60.1484
769.121	68.438
772.079	53.2258
775.036	53.2574
777.992	39.566
780.947	37.5621
783.901	31.3475
786.855	37.9722
789.807	27.2478
792.758	14.479
795.709	15.3743
798.658	21.9428
801.606	21.6685
804.554	23.6129
807.498	34.8514
810.444	25.8435
813.388	23.7108
816.33	31.8151
819.273	31.5649
822.212	28.952
825.153	57.3736
828.091	78.0292
831.027	113.461
833.965	139.704
836.9	176.467
839.834	202.358
842.769	226.515
845.701	232.181
848.632	249.091
851.562	253.978
854.491	261.822
857.419	254.467
860.347	242.035
863.273	230.96
866.196	198.277
869.121	179.982
872.044	136.116
874.966	110.626
877.886	87.8762
880.807	73.5612
883.726	64.5219
886.643	68.4268
889.561	75.9141
892.475	101.994
895.389	138.03
898.304	162.117
901.216	169.465
904.127	204.069
907.037	218.002
909.948	227.284
912.856	235.789
915.764	237.963
918.67	268.87
921.575	286.814
924.479	319.47
927.381	336.879
930.284	382.358
933.185	423.771
936.086	440.371
938.983	428.358
941.882	366.733
944.78	277.345
947.675	210.054
950.571	129.926
953.464	84.9815
956.358	52.9756
959.249	55.1987
962.139	36.1853
965.028	31.8631
967.919	40.5688
970.806	35.6852
973.693	48.952
976.578	38.2917
979.463	49.2346
982.346	51.1317
985.229	53.6708
988.111	84.8122
990.992	104.256
993.87	132.901
996.749	144.184
999.627	152.109
1002.5	172.568
1005.38	187.425
1008.25	186.74
1011.13	186.307
1014	197.716
1016.87	223.075
1019.74	229.988
1022.61	243.332
1025.48	262.636
1028.35	261.728
1031.21	283.344
1034.08	283.117
1036.94	305.611
1039.8	320.918
1042.67	325.589
1045.53	329.479
1048.39	329.253
1051.25	338.849
1054.1	320.003
1056.96	305.245
1059.82	313.661
1062.67	279.998
1065.53	292.201
1068.38	312.846
1071.23	337.121
1074.08	379.303
1076.93	446.079
1079.78	474.448
1082.63	493.857
1085.48	482.608
1088.32	450.175
1091.17	440.346
1094.01	441.357
1096.85	453.209
1099.7	465.19
1102.54	485.988
1105.38	499.554
1108.21	516.201
1111.05	529.752
1113.89	534.54
1116.72	552.872
1119.56	583.191
1122.39	597.913
1125.23	603.543
1128.06	602.278
1130.89	559.982
1133.72	533.264
1136.55	511.296
1139.37	475.638
1142.2	469.288
1145.03	449.133
1147.85	446.495
1150.67	428.697
1153.5	389.907
1156.32	342.987
1159.14	293.27
1161.96	256.731
1164.78	204.451
1167.6	159.1
1170.41	120.848
1173.23	99.553
1176.04	76.8746
1178.86	57.0495
1181.67	50.2816
1184.48	55.0504
1187.29	51.3312
1190.1	54.477
1192.91	65.4001
1195.72	71.2026
1198.52	76.8094
1201.33	95.5986
1204.13	87.3798
1206.94	97.1299
1209.74	99.1941
1212.54	89.9594
1215.34	102.508
1218.14	101.108
1220.94	100.898
1223.74	117.903
1226.54	112.745
1229.33	126.451
1232.13	145.815
1234.92	162.632
1237.71	179.862
1240.5	185.958
1243.3	213.26
1246.09	213.959
1248.87	231.032
1251.66	241.619
1254.45	239.931
1257.23	254.572
1260.02	251.571
1262.8	228.996
1265.59	227.66
1268.37	205.351
1271.15	190.38
1273.93	179.222
1276.71	168.9
1279.48	146.187
1282.26	153.863
1285.04	161.754
1287.81	157.672
1290.58	160.08
1293.36	179.006
1296.13	191.329
1298.9	192.358
1301.67	197.908
1304.44	216.399
1307.21	227.132
1309.98	236.483
1312.74	256.725
1315.51	285.065
1318.27	299.491
1321.03	376.921
1323.8	416.537
1326.56	461.334
1329.32	527.719
1332.08	557.998
1334.83	575.024
1337.59	578.357
1340.35	543.837
1343.1	531.559
1345.86	508.543
1348.61	490.103
1351.36	460.775
1354.11	425.954
1356.86	405.537
1359.61	400.84
1362.36	400.923
1365.11	396.481
1367.86	418.128
1370.6	439.329
1373.35	471.516
1376.09	473.192
1378.83	474.231
1381.57	474.643
1384.31	461.527
1387.05	443.621
1389.79	428.19
1392.53	416.216
1395.27	405.825
1398	390.19
1400.74	386.028
1403.47	359.775
1406.2	340.7
1408.94	310.204
1411.67	299.22
1414.4	275.937
1417.12	251.051
1419.85	239.801
1422.58	221.227
1425.31	188.543
1428.03	202.13
1430.75	195.787
1433.48	175.519
1436.2	179.439
1438.92	180.379
1441.64	199.716
1444.36	220.719
1447.08	278.068
1449.79	335.789
1452.51	385.545
1455.23	427.503
1457.94	445.334
1460.66	437.186
1463.37	390.308
1466.08	348.969
1468.79	291.185
1471.5	217.08
1474.21	164.643
1476.92	113.957
1479.62	73.537
1482.33	47.8831
1485.03	36.4089
1487.74	24.8734
1490.44	20.9014
1493.14	17.9973
1495.84	-0.78817
1498.54	7.47079
1501.24	-3.03132
1503.94	-0.0443205
1506.63	6.19924
1509.33	-4.50623
1512.03	-2.01125
1514.72	-0.533828
1517.41	-14.9721
1520.11	-15.5787
1522.8	-8.58953
1525.49	-4.86008
1528.18	-4.29764
1530.87	-3.76772
1533.55	-0.600104
1536.24	-6.76803
1538.93	-4.07342
1541.61	-3.70875
1544.29	10.524
1546.98	5.52033
1549.66	13.4962
1552.34	14.1237
1555.02	5.05187
1557.7	5.38817
1560.38	1.58706
1563.05	7.92188
1565.73	7.30089
1568.4	7.34125
1571.08	-0.645622
1573.75	5.35564
1576.42	8.93404
1579.09	12.6222
1581.77	-4.50623
1584.43	7.12947
1587.1	-3.46611
1589.77	12.4338
1592.44	15.9038
1595.1	3.69897
1597.77	11.5707
1600.43	6.49982
1603.09	2.08069
1605.76	13.044
1608.42	7.2828
1611.08	7.71914
1613.74	13.5767
1616.39	-0.613653
1619.05	-3.60488
1621.71	10.2862
1624.36	0.337942
1627.02	7.59396
1629.67	2.09592
1632.32	3.82439
1634.97	7.74577
1637.62	8.83194
1640.27	12.4055
1642.92	4.21454
1645.57	7.41007
1648.22	12.6201
1650.86	18.7993
1653.51	11.0528
1656.15	11.6448
1658.79	15.1843
1661.44	18.4554
1664.08	10.8935
1666.72	1.43285
1669.36	5.76373
1671.99	9.51244
1674.63	5.25098
1677.27	2.29313
1679.9	-2.4561
1682.54	17.8504
1685.17	3.33675
1687.81	17.162
1690.44	8.17346
1693.07	0.41798
1695.7	2.29549
1698.33	2.52486
1700.96	1.55401
1703.58	5.42153
1706.21	2.13658
1708.83	-2.17659
1711.46	5.40819
1714.08	-4.14021
1716.7	7.89279
1719.32	-13.3823
1721.94	-7.48465
1724.56	3.00725
1727.18	-15.397
1729.8	-6.87611
1732.42	4.64244
1735.03	-1.39088
1737.65	-5.53796
1740.26	-3.27904
1742.88	-10.4747
1745.49	-9.44872
1748.1	-4.0293
1750.71	-0.78482
1753.32	12.6252
1755.93	9.00492
1758.53	-0.705131
1761.14	-1.42923
1763.75	9.95069
1766.35	7.56412
1768.96	-3.00639
1771.56	9.33269
1774.16	13.8772
1776.76	6.65052
1779.36	7.27673
1781.96	-0.738919
1784.56	5.71804
1787.16	3.06519
1789.75	14.2726
1792.35	16.7753
1794.94	4.22845
1797.54	7.98371
1800.13	10.8474
1802.72	16.5654
1805.31	15.4326
1807.9	3.43513
1810.49	6.23803
1813.08	12.9619
1815.67	-1.57062
1818.25	0.805983
1820.84	2.36868
1823.42	13.2677
1826.01	4.53152
1828.59	3.09364
1831.17	8.52475
1833.75	9.72277
1836.33	12.1437
1838.91	3.30195
1841.49	0.482984
1844.07	-3.33227
1846.64	12.6397
1849.22	5.38324
1851.79	-0.861482
1854.36	11.3311
1856.94	5.72003
1859.51	-10.5695
1862.08	-9.76935
1864.65	-10.6891
1867.22	-20.1628
1869.79	-24.1666
1872.35	-9.54759
1874.92	-14.1676
1877.49	-15.285
1880.05	-10.6374
1882.61	0.180279
1885.18	3.25598
1887.74	0.749452
1890.3	15.861
1892.86	8.13333
1895.42	5.83011
1897.97	11.4022
1900.53	-0.131662
1903.09	9.3075
1905.64	14.2453
1908.2	6.63168
1910.75	7.1822
1913.3	4.04426
1915.86	13.9194
1918.41	9.24407
1920.96	-0.435567
1923.5	12.1541
1926.05	6.05082
1928.6	2.24002
1931.15	7.02078
1933.69	-5.66292
1936.24	0.660873
1938.78	-0.707401
1941.32	9.03814
1943.86	-9.27887
1946.4	1.52354
1948.94	2.9706
1951.48	-2.21113
1954.02	3.03767
1956.56	11.6463
1959.09	-13.4339
1961.63	-0.663747
1964.16	-2.64289
1966.7	-9.77046
1969.23	-4.58781
1971.76	0.39827
1974.29	-5.3208
1976.82	-1.83396
1979.35	-9.86794
1981.88	-4.5242
1984.41	-4.80128
1986.93	-2.16657
1989.46	0.517248
1991.98	1.79182
1994.51	9.64227
1997.03	12.2897
1999.55	1.99201
2002.07	5.58269
2004.59	9.31453
2007.11	14.722
2009.63	9.33796
2012.15	5.51855
2014.66	6.38619
2017.18	15.346
2019.69	9.89054
2022.21	11.2932
2024.72	7.5954
2027.23	14.1005
2029.75	16.4393
2032.26	18.0463
2034.77	22.4128
2037.27	11.8298
2039.78	9.04436
2042.29	16.6278
2044.79	18.6083
2047.3	10.3735
2049.8	21.1042
2052.31	9.81229
2054.81	23.7251
2057.31	23.6585
2059.81	13.0163
2062.31	0.884294
2064.81	1.44518
2067.31	7.00574
2069.8	10.5892
2072.3	1.96668
2074.79	10.9831
2077.29	9.25441
2079.78	4.77033
2082.27	0.0112397
2084.77	-5.98646
2087.26	1.61764
2089.75	4.68884
2092.24	2.88188
2094.72	4.00507
2097.21	5.94493
2099.7	9.20269
2102.18	5.22929
2104.67	6.73348
2107.15	-0.789716
2109.63	-0.00344788
2112.11	-3.20811
2114.6	3.04593
2117.08	6.73819
2119.56	7.68036
2122.03	-6.06692
2124.51	2.6197
2126.99	5.27806
2129.46	7.11016
2131.94	-1.31346
2134.41	-6.39207
2136.89	14.719
2139.36	-1.1317
2141.83	6.80369
2144.3	2.72609
2146.77	20.8361
2149.24	7.94011
2151.71	21.0948
2154.17	6.30072
2156.64	11.6637
2159.1	12.1434
2161.57	19.3635
2164.03	13.1105
2166.49	19.1328
2168.96	22.8718
2171.42	16.1578
2173.88	12.9939
2176.34	29.7737
2178.79	23.0317
2181.25	30.4236
2183.71	11.5996
2186.16	32.487
2188.62	14.4388
2191.07	26.4184
2193.53	18.0709
2195.98	9.29989
2198.43	11.87
2200.88	18.2468
2203.33	9.64024
2205.78	12.6265
2208.23	9.04436
2210.67	5.36086
2213.12	12.6241
2215.56	2.21267
2218.01	3.31438
2220.45	7.71366
2222.89	8.13848
2225.33	1.54508
2227.78	9.5916
2230.22	0.141881
2232.66	0.512495
2235.09	3.281
2237.53	3.61451
2239.97	-7.13151
2242.4	-0.159211
2244.84	1.24675
2247.27	-0.17708
2249.7	10.554
2252.14	-1.26084
2254.57	11.4058
2257	10.0161
2259.43	-2.81949
2261.86	2.9034
2264.28	0.50247
2266.71	-2.08449
2269.14	9.01613
2271.56	0.524487
2273.99	5.58605
2276.41	5.35571
2278.83	5.91557
2281.26	4.69333
2283.67	-1.55726
2286.1	11.5914
2288.52	1.21112
2290.93	-0.579145
2293.35	0.6259
2295.77	5.32261
2298.18	1.37537
2300.6	3.36361
2303.01	-10.9489
2305.43	-5.11665
2307.84	-2.14422
2310.25	-0.538266
2312.66	-9.16674
2315.07	-8.26115
2317.48	-0.704108
2319.89	-2.7272
2322.29	0.955109
2324.7	-8.38179
2327.11	-9.02788
2329.51	2.47895
2331.91	-2.80909
2334.32	-5.43515
2336.72	-7.28136
2339.12	-5.04646
2341.52	-9.46459
2343.92	2.02863
2346.32	1.7578
2348.72	-2.29635
2351.11	-7.58149
2353.51	-0.494658
2355.91	-8.02168
2358.3	-6.31537
2360.69	-6.58198
2363.09	0.394016
2365.48	-1.43486
2367.87	0.733875
2370.26	-7.04458
2372.65	-8.72806
2375.04	-8.16671
2377.42	3.35353
2379.81	2.33179
2382.2	-6.74321
2384.58	-3.01789
2386.97	-0.989532
2389.35	-5.32875
2391.73	9.61525
2394.11	0.313608
2396.5	4.3288
2398.87	5.02037
2401.25	3.61612
2403.63	-4.6755
2406.01	-0.78044
2408.39	-3.3916
2410.76	5.90865
2413.14	4.66202
2415.51	5.48149
2417.89	7.83815
2420.26	-5.8848
2422.63	2.72886
2425	2.83032
2427.37	15.1328
2429.74	-12.6631
2432.11	9.34784
2434.47	7.98877
2436.84	11.0267
2439.21	-2.86094
2441.57	-0.723067
2443.93	-0.590231
2446.3	-5.73718
2448.66	10.4528
2451.02	7.62924
2453.38	3.80092
2455.74	11.6777
2458.1	8.98859
2460.46	6.35219
2462.82	14.0455
2465.17	4.08241
2467.53	-1.51384
2469.88	14.1222
2472.24	6.4788
2474.59	3.76936
2476.94	10.4046
2479.29	11.2156
2481.64	20.8981
2483.99	15.6533
2486.34	10.3292
2488.69	19.9103
2491.04	22.8824
2493.38	28.9489
2495.73	23.5026
2498.08	22.7099
2500.42	28.1897
2502.76	12.9344
2505.11	26.7583
2507.45	21.0581
2509.79	29.8528
2512.13	39.6514
2514.47	30.5144
2516.8	31.686
2519.14	34.5171
2521.48	39.4424
2523.81	27.1197
2526.15	38.9191
2528.48	39.9446
2530.81	31.9082
2533.15	43.8278
2535.48	23.2052
2537.81	48.336
2540.14	32.9486
2542.47	39.5488
2544.8	46.674
2547.12	43.3326
2549.45	32.315
2551.77	33.4846
2554.1	39.6769
2556.42	38.1399
2558.75	47.071
2561.07	47.012
2563.39	37.9989
2565.71	49.9453
2568.03	59.9431
2570.35	67.8861
2572.67	50.207
2574.99	48.869
2577.3	52.2944
2579.62	62.2827
2581.93	65.0359
2584.25	63.6836
2586.56	70.8446
2588.87	76.8255
2591.19	70.0952
2593.5	81.6565
2595.81	84.0373
2598.11	92.2949
2600.42	88.4538
2602.73	85.6845
2605.04	96.7573
2607.34	91.858
2609.65	98.0795
2611.95	108.587
2614.26	106.8
2616.56	101.305
2618.86	112.073
2621.16	110.734
2623.46	116.706
2625.76	112.308
2628.06	125.959
2630.36	126.676
2632.65	122.971
2634.95	136.309
2637.25	135.809
2639.54	136.172
2641.83	137.987
2644.13	128.495
2646.42	140.595
2648.71	150.674
2651	155.438
2653.29	157.4
2655.58	174.477
2657.87	164.78
2660.15	173.728
2662.44	159.939
2664.72	173.509
2667.01	175.433
2669.29	174.851
2671.58	178.575
2673.86	196.484
2676.14	190.305
2678.42	184.711
2680.7	169.268
2682.98	175.481
2685.26	164.208
2687.54	162.079
2689.81	161.618
2692.09	151.011
2694.36	155.063
2696.64	141.825
2698.91	146.329
2701.18	144.869
2703.45	140.556
2705.72	143.135
2707.99	150.233
2710.26	154.365
2712.53	156.79
2714.8	135.224
2717.07	148.941
2719.33	136.939
2721.6	146.187
2723.86	149.762
2726.13	139.243
2728.39	142.45
2730.65	148.448
2732.91	136.701
2735.17	130.019
2737.43	131.262
2739.69	131.735
2741.95	132.189
2744.21	123.182
2746.46	121.458
2748.72	120.807
2750.97	115.108
2753.23	120.183
2755.48	117.717
2757.73	119.551
2759.98	114.071
2762.24	109.19
2764.49	100.205
2766.73	97.3803
2768.98	91.045
2771.23	90.8109
2773.48	90.1197
2775.72	91.0946
2777.97	79.5552
2780.21	81.0624
2782.46	83.9863
2784.7	78.8067
2786.94	77.4701
2789.18	76.9432
2791.42	75.754
2793.66	71.5405
2795.9	68.3594
2798.14	75.3381
2800.38	78.8154
2802.61	78.3295
2804.85	80.2934
2807.08	79.2214
2809.32	84.6149
2811.55	88.5622
2813.78	91.6007
2816.02	92.2876
2818.25	97.5269
2820.48	97.2623
2822.71	105.124
2824.94	112.18
2827.16	127.403
2829.39	138.509
2831.61	155.539
2833.84	184.084
2836.06	219.693
2838.29	246.519
2840.51	277.111
2842.73	308.807
2844.96	329.428
2847.18	334.753
2849.4	339.55
2851.61	341.57
2853.83	358.025
2856.05	375.205
2858.27	399.275
2860.48	437.119
2862.7	487.423
2864.91	549.888
2867.13	628.874
2869.34	716.533
2871.55	806.314
2873.76	916.829
2875.97	1038.69
2878.18	1182.78
2880.39	1353.95
2882.6	1523.05
2884.81	1684.43
2887.01	1815.71
2889.22	1931.98
2891.42	2053.93
2893.63	2146.97
2895.83	2213.23
2898.03	2311.9
2900.23	2394.52
2902.43	2467.29
2904.63	2534.25
2906.83	2569
2909.03	2564.89
2911.09	2560.13
2913.31	2522.37
2915.54	2499.02
2917.76	2444.72
2919.99	2417.21
2922.21	2365.04
2924.43	2325.64
2926.65	2309.77
2928.87	2283.75
2931.09	2275.32
2933.31	2268.1
2935.53	2233.53
2937.75	2226.89
2939.97	2231.35
2942.18	2213.93
2944.4	2204.73
2946.61	2179.82
2948.83	2158.89
2951.04	2120.42
2953.25	2083.2
2955.47	2021.95
2957.68	1958.15
2959.89	1849.68
2962.1	1752.71
2964.31	1667.03
2966.52	1576.64
2968.73	1506.27
2970.93	1439.24
2973.14	1349.48
2975.35	1299.11
2977.55	1254.9
2979.76	1198.25
2981.96	1130.84
2984.16	1089.88
2986.37	1039.55
2988.57	988.096
2990.77	940.919
2992.97	868.849
2995.17	811.441
2997.37	742.732
2999.57	666.284
3001.77	599.492
3003.96	527.174
3006.16	473.978
3008.36	411.579
3010.55	339.362
3012.75	309.492
3014.94	258.672
3017.13	225.003
3019.32	183.52
3021.52	168.071
3023.71	125.751
3025.9	105.329
3028.09	84.8145
3030.28	64.6225
3032.46	48.8186
3034.65	39.9834
3036.84	30.6987
3039.02	24.7965
3041.21	4.80509
3043.39	7.87573
3045.58	2.77279
3047.76	1.87657
3049.94	0.926241
3052.13	-3.1875
3054.31	-7.50109
3056.49	-5.69523
3058.67	-4.08174
3060.85	3.44677
3063.03	-10.8983
3065.2	-0.176796
3067.38	8.33416
3069.56	-0.0530437
3071.73	8.3106
3073.91	2.64654
3076.08	4.89495
3078.26	6.73902
3080.43	9.21349
3082.6	17.8638
3084.77	16.2768
3086.95	23.6533
3089.12	31.427
3091.29	38.2117
3093.46	39.7702
3095.62	49.0465
3097.79	47.0393
3099.96	48.7245
3102.12	59.8749
3104.29	52.8826
3106.45	61.6552
3108.62	67.0477
3110.78	73.4062
3112.95	72.3264
3115.11	82.0914
3117.27	93.5124
3119.43	87.5531
3121.59	99.583
3123.75	94.4004
3125.91	106.777
3128.07	111.467
3130.22	111.323
3132.38	123.08
3134.54	121.313
3136.69	135.385
3138.85	137.26
3141	145.847
3143.16	144.79
3145.31	154.6
3147.46	162.101
3149.61	174.636
3151.76	169.114
3153.91	184.91
3156.06	181.651
3158.21	191.371
3160.36	190.206
3162.51	192.966
3164.65	202.773
3166.8	215.567
3168.94	212.453
3171.09	226.694
3173.23	229.875
3175.38	246.122
3177.52	243.468
3179.66	259.577
3181.8	261.929
3183.94	259.902
3186.08	271.726
3188.22	270.268
3190.36	282.506
3192.5	282.246
3194.63	292.095
3196.77	304.424
3198.91	307.013
3201.04	317.218
3203.18	316.834
3205.31	314.063
3207.44	329.913
3209.58	326.773
3211.71	334.52
3213.84	351.555
3215.97	344.943
3218.1	353.529
3220.23	355.136
3222.36	372.682
3224.49	364.958
3226.61	372.37
3228.74	380.459
3230.87	391.029
3232.99	385.541
3235.11	396.043
3237.24	390.465
3239.36	409.328
3241.48	416.59
3243.61	411.423
3245.73	420.823
3247.85	425.729
3249.97	416.834
3252.09	424.979
3254.2	432.592
3256.32	445.719
3258.44	451.17
3260.56	446.418
3262.67	456.174
3264.79	445.708
3266.9	456.579
3269.02	455.349
3271.13	468.045
3273.24	468.77
3275.35	472.72
3277.46	465.075
3279.57	477.655
3281.68	478.343
3283.79	471.548
3285.9	480.628
3288.01	480.889
3290.12	478.273
3292.22	478.739
3294.33	483.132
3296.43	492.761
3298.54	492.167
3300.64	495.858
3302.75	496.683
3304.85	501.175
3306.95	501.711
3309.05	503.095
3311.15	506.368
3313.25	505.693
3315.35	512.681
3317.45	505.18
3319.55	511.809
3321.65	507.261
3323.74	520.378
3325.84	526.439
3327.93	515.184
3330.03	512.731
3332.12	518.626
3334.21	519.452
3336.31	524.235
3338.4	516.363
3340.49	519.597
3342.58	523.36
3344.67	533.177
3346.76	518.967
3348.85	519.347
3350.94	523.477
3353.02	518.178
3355.11	525.135
3357.2	527.382
3359.28	520.268
3361.37	525.17
3363.45	521.213
3365.53	514.128
3367.62	524.7
3369.7	517.44
3371.78	510.529
3373.86	519.333
3375.94	509.374
3378.02	517.137
3380.1	501.917
3382.18	495.961
3384.25	497.41
3386.33	497.895
3388.41	488.766
3390.48	484.254
3392.56	498.914
3394.63	486.05
3396.71	476.43
3398.78	476.538
3400.85	468.407
3402.92	464.688
3404.99	458.653
3407.06	460.557
3409.13	451.596
3411.2	436.911
3413.27	435.286
3415.34	437.192
3417.4	435.188
3419.47	422.333
3421.54	412.225
3423.6	407.47
3425.67	396.581
3427.73	404.85
3429.79	389.026
3431.86	376.519
3433.92	371.432
3435.98	364.729
3438.04	356.205
3440.1	350.205
3442.16	345.033
3444.22	332.636
3446.27	309.719
3448.33	310.7
3450.39	311.223
3452.44	288.882
3454.5	267.067
3456.55	268.836
3458.61	254.516
3460.66	253.161
3462.71	247.56
3464.77	231.068
3466.82	218.048
3468.87	206.786
3470.92	193.816
3472.97	189.211
3475.02	169.289
3477.06	153.257
3479.11	136.645
3481.16	126.427
3483.2	111.567
3485.25	95.0609
3487.3	86.3293
3489.34	72.9627
3491.38	50.9076
3493.43	43.549
3495.47	29.9729
3497.51	10.6197
3499.55	-8.86172
