200.057	779.551
203.219	797.875
206.378	806.581
209.539	805.714
212.696	810.63
215.854	795.789
219.009	794.068
222.165	794.302
225.318	801.999
228.472	808.395
231.622	817.051
234.774	832.703
237.923	828.34
241.07	835.575
244.217	835.693
247.364	840.58
250.508	832.741
253.652	828.313
256.794	816.836
259.937	811.342
263.077	805.312
266.216	799.392
269.354	805.433
272.491	816.935
275.626	834.962
278.761	849.311
281.895	869.917
285.027	904.061
288.159	949.204
291.287	964.898
294.417	985.713
297.545	1007.84
300.672	1011.15
303.799	1016.09
306.922	1006.39
310.046	979.448
313.169	965.715
316.289	952.343
319.41	938.05
322.528	919.199
325.647	912.764
328.764	893.682
331.879	889.473
334.993	888.871
338.107	888.944
341.219	889.352
344.332	895.253
347.441	893.796
350.549	890.05
353.659	887.783
356.765	898.646
359.87	897.476
362.975	893.703
366.078	902.815
369.18	909.721
372.281	914.173
375.383	942.744
378.482	967.443
381.58	997.727
384.675	1071.29
387.771	1131.42
390.865	1176.06
393.959	1198.5
397.052	1192.47
400.144	1191.37
403.234	1201.08
406.322	1183.56
409.411	1160
412.498	1103.14
415.583	1040.71
418.668	998.318
421.75	965.066
424.834	936.663
427.916	922.12
430.996	925.78
434.074	915.11
437.153	894.027
440.229	903.995
443.306	898.971
446.381	887.077
449.454	891.497
452.526	881.459
455.599	890.44
458.669	882.515
461.738	883.418
464.806	888.373
467.873	887.905
470.939	889.952
474.004	891.004
477.067	893.261
480.13	893.112
483.192	902.752
486.253	900.862
489.313	904.665
492.369	907.318
495.427	917.645
498.484	915.921
501.54	924.66
504.592	921.387
507.646	937.228
510.698	941.477
513.748	935.005
516.799	928.973
519.846	928.911
522.895	930.852
525.94	920.444
528.985	917.268
532.03	913.337
535.073	902.269
538.114	911.903
541.157	912.569
544.196	916.163
547.234	918.223
550.272	926.624
553.308	930.335
556.344	930.275
559.378	936.652
562.411	934.545
565.444	943.674
568.475	947.249
571.505	948.273
574.535	954.809
577.563	945.691
580.588	953.15
583.615	949.178
586.64	954.99
589.662	944.495
592.686	941.266
595.708	947.565
598.727	941.645
601.747	944.624
604.765	941.488
607.783	946.191
610.798	944.091
613.813	953.099
616.828	942.689
619.84	957.117
622.851	958.398
625.862	960.28
628.873	964.789
631.881	970.143
634.889	961.053
637.895	975.712
640.9	979.788
643.904	977.301
646.908	986.469
649.91	993.765
652.909	998.719
655.91	994.27
658.909	1004.69
661.907	1008.82
664.903	1026.83
667.899	1035.83
670.895	1047.27
673.887	1055.14
676.88	1047.24
679.871	1033.62
682.862	1028.72
685.851	1030.4
688.84	1029.65
691.827	1025.24
694.812	1025.08
697.799	1032.06
700.782	1050.51
703.765	1050.68
706.746	1054.67
709.727	1056.34
712.706	1045.06
715.685	1024.71
718.663	1013.16
721.639	1013.2
724.615	1028.99
727.59	1050.84
730.563	1076.94
733.536	1094.38
736.506	1088.28
739.477	1081.51
742.446	1073.12
745.413	1046.58
748.381	1050.45
751.346	1055.01
754.312	1036.68
757.275	1024.25
760.239	1033.24
763.2	1025.6
766.16	1019.79
769.121	1012.17
772.079	1005.98
775.036	996.588
777.992	990.087
780.947	992.79
783.901	989.151
786.855	990.146
789.807	987.978
792.758	984.084
795.709	978.522
798.658	974.22
801.606	985.451
804.554	988.059
807.498	983.558
810.444	990.729
813.388	995.672
816.33	998.562
819.273	998.882
822.212	1002.8
825.153	1012.4
828.091	1009.62
831.027	1019.43
833.965	1022.13
836.9	1028.12
839.834	1056.97
842.769	1059.4
845.701	1072.57
848.632	1096.96
851.562	1139.78
854.491	1180.74
857.419	1275.81
860.347	1411.74
863.273	1598.14
866.196	1782.75
869.121	1935.45
872.044	1911.59
874.966	1746.53
877.886	1521.18
880.807	1341.84
883.726	1238.59
886.643	1169.07
889.561	1129.18
892.475	1120.72
895.389	1109.13
898.304	1113.54
901.216	1108.23
904.127	1114.97
907.037	1104.18
909.948	1110.36
912.856	1130.91
915.764	1125.49
918.67	1123.57
921.575	1121.38
924.479	1111.69
927.381	1098.64
930.284	1081.02
933.185	1075.93
936.086	1062.18
938.983	1065.14
941.882	1056.11
944.78	1057.5
947.675	1049.57
950.571	1059.03
953.464	1052.28
956.358	1055.25
959.249	1046.51
962.139	1039.58
965.028	1031.85
967.919	1030.81
970.806	1026.61
973.693	1030.47
976.578	1030.34
979.463	1027.31
982.346	1029.63
985.229	1029.08
988.111	1042.5
990.992	1029.1
993.87	1037.07
996.749	1031.64
999.627	1036.14
1002.5	1041.17
1005.38	1040.12
1008.25	1052.64
1011.13	1059.8
1014	1081.25
1016.87	1081.19
1019.74	1104.61
1022.61	1114.63
1025.48	1141.74
1028.35	1178.98
1031.21	1218.92
1034.08	1275.57
1036.94	1324.28
1039.8	1354.47
1042.67	1339.29
1045.53	1305.58
1048.39	1275
1051.25	1221.38
1054.1	1187.59
1056.96	1142.46
1059.82	1129.52
1062.67	1107.62
1065.53	1111.14
1068.38	1107.71
1071.23	1112.05
1074.08	1117.33
1076.93	1148.92
1079.78	1175.41
1082.63	1218.16
1085.48	1249.14
1088.32	1275.6
1091.17	1273.22
1094.01	1269.9
1096.85	1260.79
1099.7	1241.7
1102.54	1212.16
1105.38	1197.06
1108.21	1199.89
1111.05	1207.32
1113.89	1239.16
1116.72	1281.84
1119.56	1335.59
1122.39	1412.18
1125.23	1433.23
1128.06	1429.16
1130.89	1386.97
1133.72	1339.78
1136.55	1279.45
1139.37	1236.5
1142.2	1179.75
1145.03	1147.91
1147.85	1114.54
1150.67	1114.85
1153.5	1106.64
1156.32	1093.77
1159.14	1099.84
1161.96	1097.12
1164.78	1102.94
1167.6	1107.63
1170.41	1114.8
1173.23	1135.11
1176.04	1158.66
1178.86	1157.31
1181.67	1155.6
1184.48	1146.21
1187.29	1128.36
1190.1	1132.9
1192.91	1129.76
1195.72	1124.51
1198.52	1132.43
1201.33	1138.01
1204.13	1133.84
1206.94	1140.7
1209.74	1153.5
1212.54	1159.9
1215.34	1160.53
1218.14	1160.45
1220.94	1141.41
1223.74	1136.86
1226.54	1131.1
1229.33	1120.88
1232.13	1121.62
1234.92	1128.53
1237.71	1120.93
1240.5	1117.27
1243.3	1109.91
1246.09	1123.71
1248.87	1118.65
1251.66	1120.94
1254.45	1122.25
1257.23	1128.04
1260.02	1133.65
1262.8	1134.75
1265.59	1141.22
1268.37	1138.57
1271.15	1140.91
1273.93	1152.1
1276.71	1161.72
1279.48	1182.4
1282.26	1201.51
1285.04	1244.99
1287.81	1303.41
1290.58	1349.12
1293.36	1366.57
1296.13	1357.52
1298.9	1333.79
1301.67	1306.22
1304.44	1273.26
1307.21	1257.9
1309.98	1245.99
1312.74	1222.27
1315.51	1222.87
1318.27	1216.9
1321.03	1214.79
1323.8	1201.58
1326.56	1204.01
1329.32	1210.56
1332.08	1210.33
1334.83	1212.22
1337.59	1220.83
1340.35	1221.68
1343.1	1222.02
1345.86	1234.69
1348.61	1245.79
1351.36	1258.03
1354.11	1262.77
1356.86	1272.45
1359.61	1264.71
1362.36	1265.3
1365.11	1255.42
1367.86	1257.49
1370.6	1226.7
1373.35	1244.23
1376.09	1268.03
1378.83	1294.56
1381.57	1314.1
1384.31	1330.53
1387.05	1318.62
1389.79	1292.48
1392.53	1251.75
1395.27	1217.88
1398	1191.26
1400.74	1185.52
1403.47	1163.89
1406.2	1167.28
1408.94	1165.59
1411.67	1168.67
1414.4	1164.65
1417.12	1170.22
1419.85	1173.8
1422.58	1183.36
1425.31	1191.93
1428.03	1201.42
1430.75	1241.5
1433.48	1266.01
1436.2	1313.95
1438.92	1399.86
1441.64	1495.79
1444.36	1578.76
1447.08	1661.51
1449.79	1702.07
1452.51	1703.2
1455.23	1689.66
1457.94	1603.05
1460.66	1534.01
1463.37	1460.07
1466.08	1388.62
1468.79	1317.66
1471.5	1281.5
1474.21	1241.11
1476.92	1217.12
1479.62	1210.84
1482.33	1187.35
1485.03	1190.49
1487.74	1183.63
1490.44	1179.7
1493.14	1173.81
1495.84	1177.24
1498.54	1184.3
1501.24	1176.09
1503.94	1179.89
1506.63	1176.02
1509.33	1181.92
1512.03	1165.9
1514.72	1178.89
1517.41	1175.41
1520.11	1167.15
1522.8	1156.35
1525.49	1170.16
1528.18	1172.19
1530.87	1177.23
1533.55	1172.78
1536.24	1180.47
1538.93	1160.39
1541.61	1175.8
1544.29	1166.07
1546.98	1173.74
1549.66	1175.49
1552.34	1170.11
1555.02	1181.78
1557.7	1179.46
1560.38	1174.45
1563.05	1180.29
1565.73	1183.43
1568.4	1182.46
1571.08	1176.66
1573.75	1184.34
1576.42	1179.68
1579.09	1179.75
1581.77	1184.43
1584.43	1193.07
1587.1	1185.38
1589.77	1183.9
1592.44	1187.91
1595.1	1189.34
1597.77	1185.27
1600.43	1185.14
1603.09	1189.35
1605.76	1182.18
1608.42	1188.05
1611.08	1178.12
1613.74	1185.41
1616.39	1194.62
1619.05	1179.73
1621.71	1189.66
1624.36	1183.59
1627.02	1199.45
1629.67	1181.91
1632.32	1187.13
1634.97	1186.65
1637.62	1191.29
1640.27	1196.25
1642.92	1195.85
1645.57	1192.92
1648.22	1191.6
1650.86	1198.82
1653.51	1191.35
1656.15	1199.68
1658.79	1206.71
1661.44	1200.37
1664.08	1205.56
1666.72	1205.53
1669.36	1193.34
1671.99	1193.12
1674.63	1194.68
1677.27	1202.24
1679.9	1197.1
1682.54	1208.8
1685.17	1189.43
1687.81	1201.76
1690.44	1203.1
1693.07	1188.44
1695.7	1196.04
1698.33	1202.86
1700.96	1194.18
1703.58	1200.8
1706.21	1195.67
1708.83	1194.98
1711.46	1198.49
1714.08	1196.16
1716.7	1204.5
1719.32	1207.33
1721.94	1214.97
1724.56	1212.21
1727.18	1212.27
1729.8	1213.11
1732.42	1229.55
1735.03	1240.28
1737.65	1270.25
1740.26	1296.5
1742.88	1324.63
1745.49	1363.34
1748.1	1414.51
1750.71	1442.83
1753.32	1483.04
1755.93	1506.72
1758.53	1550.35
1761.14	1598.02
1763.75	1638
1766.35	1638.18
1768.96	1633.26
1771.56	1623.51
1774.16	1607.61
1776.76	1546.34
1779.36	1479.76
1781.96	1404.76
1784.56	1343.24
1787.16	1307.62
1789.75	1270.53
1792.35	1252.15
1794.94	1238.71
1797.54	1233.36
1800.13	1221.35
1802.72	1215.08
1805.31	1218.32
1807.9	1214.04
1810.49	1213.65
1813.08	1215.28
1815.67	1206.54
1818.25	1202.29
1820.84	1215.65
1823.42	1198.68
1826.01	1208.09
1828.59	1199.58
1831.17	1195.4
1833.75	1191.47
1836.33	1203.03
1838.91	1199.29
1841.49	1201.68
1844.07	1196.27
1846.64	1197.13
1849.22	1200.33
1851.79	1211.96
1854.36	1197.15
1856.94	1184.85
1859.51	1200.78
1862.08	1192.38
1864.65	1192.58
1867.22	1188.42
1869.79	1188.15
1872.35	1194.98
1874.92	1180.88
1877.49	1186.75
1880.05	1197.2
1882.61	1199.22
1885.18	1191.8
1887.74	1199.74
1890.3	1182.57
1892.86	1193.64
1895.42	1198.82
1897.97	1197.86
1900.53	1189.82
1903.09	1197.33
1905.64	1200.4
1908.2	1200.95
1910.75	1198.33
1913.3	1197.8
1915.86	1198.48
1918.41	1193.07
1920.96	1193.66
1923.5	1198.71
1926.05	1202.55
1928.6	1194.71
1931.15	1192.05
1933.69	1200.01
1936.24	1183.74
1938.78	1185.62
1941.32	1192.61
1943.86	1188
1946.4	1183.85
1948.94	1181.7
1951.48	1183.23
1954.02	1174.56
1956.56	1181.75
1959.09	1187.65
1961.63	1184.86
1964.16	1184.53
1966.7	1188.17
1969.23	1178.98
1971.76	1181.49
1974.29	1184.26
1976.82	1174.56
1979.35	1176.1
1981.88	1175.11
1984.41	1183
1986.93	1179.28
1989.46	1186.62
1991.98	1176.32
1994.51	1187.11
1997.03	1188.2
1999.55	1194.12
2002.07	1180.3
2004.59	1187.64
2007.11	1195.82
2009.63	1197.43
2012.15	1181.37
2014.66	1183.6
2017.18	1183.38
2019.69	1188.63
2022.21	1187.91
2024.72	1199.81
2027.23	1197.92
2029.75	1190.98
2032.26	1188.36
2034.77	1191.5
2037.27	1191.51
2039.78	1188.24
2042.29	1204.38
2044.79	1194.12
2047.3	1191.71
2049.8	1194.49
2052.31	1196.32
2054.81	1187.88
2057.31	1192.45
2059.81	1186.98
2062.31	1183.42
2064.81	1183.02
2067.31	1189.02
2069.8	1191.81
2072.3	1187.03
2074.79	1191.78
2077.29	1185.57
2079.78	1180.09
2082.27	1177.18
2084.77	1181.16
2087.26	1176.3
2089.75	1185.13
2092.24	1178.66
2094.72	1177.52
2097.21	1185.56
2099.7	1173.04
2102.18	1180.79
2104.67	1185.79
2107.15	1173.02
2109.63	1189.83
2112.11	1176.22
2114.6	1184.61
2117.08	1189.15
2119.56	1179.43
2122.03	1183.09
2124.51	1188.17
2126.99	1184.64
2129.46	1192.54
2131.94	1191.12
2134.41	1192.07
2136.89	1180.61
2139.36	1183.53
2141.83	1176.65
2144.3	1186.52
2146.77	1192.6
2149.24	1188.53
2151.71	1178.72
2154.17	1188.81
2156.64	1196.37
2159.1	1179.67
2161.57	1195.42
2164.03	1194.93
2166.49	1191.89
2168.96	1194.42
2171.42	1195.57
2173.88	1188.62
2176.34	1193.5
2178.79	1198.5
2181.25	1191.6
2183.71	1195.21
2186.16	1187.48
2188.62	1189.42
2191.07	1193.51
2193.53	1180.35
2195.98	1186.64
2198.43	1197.38
2200.88	1188.94
2203.33	1187.3
2205.78	1189.58
2208.23	1186.32
2210.67	1186.59
2213.12	1181.45
2215.56	1186.91
2218.01	1190.16
2220.45	1187.21
2222.89	1183.33
2225.33	1182.42
2227.78	1183.34
2230.22	1178.58
2232.66	1178.29
2235.09	1178.08
2237.53	1175.52
2239.97	1179.6
2242.4	1175.65
2244.84	1177.15
2247.27	1176.79
2249.7	1178.12
2252.14	1176.37
2254.57	1185.86
2257	1167.78
2259.43	1173.55
2261.86	1176.93
2264.28	1171.58
2266.71	1182.78
2269.14	1179.13
2271.56	1172.11
2273.99	1165.5
2276.41	1168.65
2278.83	1177.94
2281.26	1176.67
2283.67	1174.61
2286.1	1169.92
2288.52	1178.92
2290.93	1182.4
2293.35	1174.37
2295.77	1172.11
2298.18	1172.9
2300.6	1173.2
2303.01	1179.67
2305.43	1186.76
2307.84	1176.33
2310.25	1174.23
2312.66	1176.52
2315.07	1172.21
2317.48	1172.38
2319.89	1170.61
2322.29	1169.11
2324.7	1181.58
2327.11	1175.56
2329.51	1175.69
2331.91	1171.29
2334.32	1175.7
2336.72	1175.73
2339.12	1175.55
2341.52	1167.39
2343.92	1166.95
2346.32	1167.78
2348.72	1164.27
2351.11	1163.19
2353.51	1166.67
2355.91	1167.86
2358.3	1164.24
2360.69	1165.67
2363.09	1166.84
2365.48	1163.45
2367.87	1164.86
2370.26	1170.13
2372.65	1164.02
2375.04	1167.37
2377.42	1155.47
2379.81	1169.33
2382.2	1173.76
2384.58	1164.5
2386.97	1179.59
2389.35	1161.26
2391.73	1169.01
2394.11	1165.67
2396.5	1172.53
2398.87	1167.24
2401.25	1161.34
2403.63	1180.71
2406.01	1166.21
2408.39	1172.7
2410.76	1171.89
2413.14	1155.77
2415.51	1164.45
2417.89	1163.42
2420.26	1158.24
2422.63	1171.24
2425	1162.81
2427.37	1169.48
2429.74	1165.29
2432.11	1166.05
2434.47	1156.71
2436.84	1157.59
2439.21	1154.91
2441.57	1164.29
2443.93	1156.98
2446.3	1160.43
2448.66	1157.16
2451.02	1153.03
2453.38	1157.79
2455.74	1166.64
2458.1	1144.76
2460.46	1142.05
2462.82	1150.44
2465.17	1149.66
2467.53	1151.62
2469.88	1153.09
2472.24	1151.56
2474.59	1155.72
2476.94	1148.08
2479.29	1144.65
2481.64	1147.78
2483.99	1152.82
2486.34	1151
2488.69	1162.39
2491.04	1152.26
2493.38	1152.71
2495.73	1158.65
2498.08	1151.69
2500.42	1150.34
2502.76	1158.83
2505.11	1149.82
2507.45	1171.91
2509.79	1160.02
2512.13	1161.86
2514.47	1153.31
2516.8	1157.87
2519.14	1155.47
2521.48	1167.84
2523.81	1158.54
2526.15	1151.98
2528.48	1154.44
2530.81	1150.25
2533.15	1151.51
2535.48	1147.85
2537.81	1149.23
2540.14	1150.38
2542.47	1163.19
2544.8	1164.89
2547.12	1161.05
2549.45	1156.07
2551.77	1163.13
2554.1	1166.15
2556.42	1162.41
2558.75	1151.91
2561.07	1156.77
2563.39	1159.5
2565.71	1157.56
2568.03	1155.12
2570.35	1151.68
2572.67	1159.7
2574.99	1150.7
2577.3	1153.51
2579.62	1157.94
2581.93	1157.43
2584.25	1158.25
2586.56	1164.23
2588.87	1156.05
2591.19	1158.12
2593.5	1160.93
2595.81	1160.03
2598.11	1156.66
2600.42	1160.03
2602.73	1154.31
2605.04	1158.09
2607.34	1154.42
2609.65	1149.48
2611.95	1146.16
2614.26	1153.33
2616.56	1142.99
2618.86	1147.52
2621.16	1144.51
2623.46	1137.27
2625.76	1132.58
2628.06	1134.2
2630.36	1138.37
2632.65	1140.23
2634.95	1140.64
2637.25	1146.11
2639.54	1127.93
2641.83	1132.56
2644.13	1137.56
2646.42	1128.94
2648.71	1136
2651	1132.16
2653.29	1139.42
2655.58	1133.47
2657.87	1133.31
2660.15	1133.98
2662.44	1137.59
2664.72	1138.97
2667.01	1136.48
2669.29	1139.18
2671.58	1132.57
2673.86	1136.07
2676.14	1133.48
2678.42	1127.55
2680.7	1131.96
2682.98	1131.28
2685.26	1116.26
2687.54	1110.73
2689.81	1112.65
2692.09	1098.42
2694.36	1105.43
2696.64	1102.69
2698.91	1087.2
2701.18	1102.68
2703.45	1091.24
2705.72	1087.91
2707.99	1097.74
2710.26	1096.92
2712.53	1092.67
2714.8	1087.77
2717.07	1094.82
2719.33	1092.57
2721.6	1090.03
2723.86	1107.06
2726.13	1108.44
2728.39	1121.35
2730.65	1128.65
2732.91	1140.68
2735.17	1133.85
2737.43	1149.19
2739.69	1147.97
2741.95	1152.17
2744.21	1143.71
2746.46	1134.27
2748.72	1127.59
2750.97	1122.64
2753.23	1120.81
2755.48	1113.09
2757.73	1102.49
2759.98	1101.03
2762.24	1084.3
2764.49	1070.71
2766.73	1062.06
2768.98	1059
2771.23	1047.52
2773.48	1036.14
2775.72	1033.16
2777.97	1024.38
2780.21	1023.75
2782.46	1015.25
2784.7	1008.76
2786.94	1002.5
2789.18	1003.92
2791.42	991.657
2793.66	990.82
2795.9	984.625
2798.14	983.757
2800.38	979.119
2802.61	975.746
2804.85	975.257
2807.08	968.747
2809.32	965.062
2811.55	963.902
2813.78	959.003
2816.02	955.136
2818.25	948.355
2820.48	951.77
2822.71	951.11
2824.94	947.694
2827.16	949.841
2829.39	948.509
2831.61	943.362
2833.84	946.775
2836.06	942.908
2838.29	944.29
2840.51	947.357
2842.73	952.698
2844.96	958.305
2847.18	958.301
2849.4	956.593
2851.61	950.512
2853.83	953.464
2856.05	956.887
2858.27	961.345
2860.48	976.731
2862.7	1001.89
2864.91	1036.27
2867.13	1082.61
2869.34	1152.69
2871.55	1240.86
2873.76	1338.95
2875.97	1426.95
2878.18	1495.07
2880.39	1533.35
2882.6	1533.39
2884.81	1504.11
2887.01	1457.64
2889.22	1410.15
2891.42	1379.68
2893.63	1365.09
2895.83	1360.18
2898.03	1364.88
2900.23	1369.1
2902.43	1356.74
2904.63	1356.04
2906.83	1353.81
2909.03	1355.17
2911.09	1356.16
2913.31	1354.33
2915.54	1374.48
2917.76	1397.21
2919.99	1426.19
2922.21	1468.83
2924.43	1541.87
2926.65	1620.36
2928.87	1768.97
2931.09	1968.68
2933.31	2282.87
2935.53	2735.15
2937.75	3350.28
2939.97	4052.39
2942.18	4708.57
2944.4	5101.64
2946.61	5108.31
2948.83	4825.45
2951.04	4344.53
2953.25	3853.97
2955.47	3413.52
2957.68	3012.98
2959.89	2729.86
2962.1	2507.35
2964.31	2313.92
2966.52	2162.13
2968.73	2013.81
2970.93	1909.7
2973.14	1823.21
2975.35	1773.48
2977.55	1727.35
2979.76	1687.89
2981.96	1665.61
2984.16	1700.52
2986.37	1750.65
2988.57	1891.77
2990.77	2059.09
2992.97	2241.48
2995.17	2408.18
2997.37	2541.94
2999.57	2579.47
3001.77	2546.24
3003.96	2475.06
3006.16	2388.83
3008.36	2276.9
3010.55	2141.15
3012.75	2016.86
3014.94	1889.18
3017.13	1764.91
3019.32	1630.09
3021.52	1502.59
3023.71	1379.03
3025.9	1272.1
3028.09	1186.57
3030.28	1113.3
3032.46	1055.92
3034.65	1011.15
3036.84	974.329
3039.02	945.434
3041.21	925.011
3043.39	910.033
3045.58	891.342
3047.76	875.821
3049.94	859.655
3052.13	856.367
3054.31	841.733
3056.49	832.703
3058.67	834.113
3060.85	821.068
3063.03	820.631
3065.2	822.465
3067.38	817.22
3069.56	805.789
3071.73	808.944
3073.91	801.991
3076.08	806.263
3078.26	792.746
3080.43	803.871
3082.6	784.582
3084.77	784.883
3086.95	790.243
3089.12	777.871
3091.29	780.326
3093.46	785.541
3095.62	781.491
3097.79	771.724
3099.96	772.59
3102.12	775.741
3104.29	764.93
3106.45	770.078
3108.62	763.639
3110.78	768.478
3112.95	762.863
3115.11	762.591
3117.27	758.297
3119.43	761.151
3121.59	759.685
3123.75	747.917
3125.91	759.068
3128.07	759.886
3130.22	756.927
3132.38	754.197
3134.54	754.016
3136.69	752.509
3138.85	746.564
3141	755.164
3143.16	749.579
3145.31	749.759
3147.46	752.966
3149.61	742.113
3151.76	751.18
3153.91	748.036
3156.06	752.556
3158.21	745.508
3160.36	744.727
3162.51	743.034
3164.65	745.244
3166.8	742.244
3168.94	751.477
3171.09	751.851
3173.23	744.163
3175.38	745.492
3177.52	749.849
3179.66	754.6
3181.8	746.505
3183.94	751.602
3186.08	747.797
3188.22	753.681
3190.36	751.934
3192.5	746.716
3194.63	746.62
3196.77	751.763
3198.91	753.192
3201.04	746.528
3203.18	748.32
3205.31	743.412
3207.44	752.782
3209.58	742.334
3211.71	746.117
3213.84	747.758
3215.97	753.106
3218.1	751.03
3220.23	742.476
3222.36	747.64
3224.49	748.312
3226.61	737.705
3228.74	749.098
3230.87	745.523
3232.99	729.208
3235.11	737.258
3237.24	737.227
3239.36	732.374
3241.48	728.048
3243.61	726.2
3245.73	723.229
3247.85	723.293
3249.97	718.765
3252.09	719.297
3254.2	715.959
3256.32	711.28
3258.44	711.264
3260.56	712.523
3262.67	709.134
3264.79	708.502
3266.9	711.04
3269.02	702.416
3271.13	708.353
3273.24	704.817
3275.35	695.657
3277.46	699.845
3279.57	694.08
3281.68	697.677
3283.79	691.84
3285.9	697.449
3288.01	695.493
3290.12	688.835
3292.22	690.19
3294.33	682.367
3296.43	688.426
3298.54	689.915
3300.64	684.041
3302.75	690.174
3304.85	690.961
3306.95	682.853
3309.05	677.084
3311.15	679.963
3313.25	682.422
3315.35	676.152
3317.45	674.462
3319.55	681.757
3321.65	678.73
3323.74	682.616
3325.84	677.938
3327.93	673.088
3330.03	673.798
3332.12	677.105
3334.21	669.943
3336.31	675.577
3338.4	671.646
3340.49	675.793
3342.58	664.335
3344.67	664.891
3346.76	663.394
3348.85	659.672
3350.94	663.316
3353.02	654.411
3355.11	664.888
3357.2	665.143
3359.28	664.672
3361.37	674.498
3363.45	663.164
3365.53	663.319
3367.62	664.685
3369.7	667.87
3371.78	667.374
3373.86	664.99
3375.94	658.4
3378.02	662.215
3380.1	660.706
3382.18	658.073
3384.25	665.701
3386.33	652.767
3388.41	655.442
3390.48	653.604
3392.56	658.939
3394.63	660.158
3396.71	656.89
3398.78	654.676
3400.85	655.52
3402.92	660.738
3404.99	649.738
3407.06	650.094
3409.13	649.606
3411.2	654.066
3413.27	653.596
3415.34	650.106
3417.4	650.155
3419.47	647.452
3421.54	647.7
3423.6	646.792
3425.67	642.835
3427.73	645.427
3429.79	647.95
3431.86	646.745
3433.92	651.02
3435.98	644.226
3438.04	641.724
3440.1	638.174
3442.16	642.9
3444.22	646.21
3446.27	641.609
3448.33	643.849
3450.39	637.157
3452.44	647.51
3454.5	640.541
3456.55	638.346
3458.61	634.292
3460.66	639.923
3462.71	635.57
3464.77	632.655
3466.82	638.927
3468.87	630.991
3470.92	631.465
3472.97	628.771
3475.02	631.981
3477.06	628.756
3479.11	634.533
3481.16	629.188
3483.2	630.14
3485.25	634.218
3487.3	632.447
3489.34	634.466
3491.38	624.807
3493.43	626.23
3495.47	628.218
3497.51	628.84
3499.55	624.693
