200.057	600.288
203.219	628.72
206.378	625.424
209.539	642.931
212.696	650.985
215.854	648.926
219.009	651.887
222.165	652.405
225.318	635.258
228.472	656.239
231.622	631.307
234.774	601.365
237.923	604.091
241.07	596.166
244.217	583.435
247.364	539.342
250.508	544.547
253.652	522.928
256.794	514.255
259.937	496.202
263.077	480.07
266.216	471.762
269.354	461.305
272.491	453.834
275.626	440.234
278.761	422.206
281.895	399.253
285.027	390.809
288.159	355.117
291.287	325.236
294.417	298.193
297.545	268.4
300.672	242.377
303.799	247.889
306.922	188.666
310.046	175.105
313.169	141.388
316.289	141.258
319.41	140.842
322.528	113.979
325.647	139.685
328.764	126.077
331.879	107.142
334.993	116.779
338.107	141.702
341.219	129.765
344.332	128.292
347.441	109.149
350.549	105.647
353.659	108.266
356.765	99.9197
359.87	85.4966
362.975	66.0299
366.078	14.8175
369.18	27.8155
372.281	19.7687
375.383	-1.28416
378.482	19.4511
381.58	-11.838
384.675	7.4098
387.771	-1.00797
390.865	-13.9773
393.959	-11.2887
397.052	-15.0025
400.144	-7.97149
403.234	3.68067
406.322	20.3841
409.411	71.5743
412.498	49.1841
415.583	49.4912
418.668	50.4982
421.75	56.3963
424.834	62.0172
427.916	65.4969
430.996	47.415
434.074	57.0353
437.153	40.3469
440.229	34.5766
443.306	6.13984
446.381	0.720785
449.454	43.2439
452.526	11.8072
455.599	19.4156
458.669	-14.4151
461.738	-12.3887
464.806	-21.661
467.873	13.672
470.939	-10.5418
474.004	12.3206
477.067	15.0853
480.13	36.5026
483.192	23.0533
486.253	36.353
489.313	31.7504
492.369	56.9892
495.427	28.6783
498.484	52.4757
501.54	29.9406
504.592	25.1142
507.646	23.5606
510.698	24.1797
513.748	17.4074
516.799	13.8154
519.846	15.9198
522.895	-21.4746
525.94	-27.7633
528.985	5.92401
532.03	-11.5395
535.073	-7.45304
538.114	-9.03067
541.157	22.8999
544.196	22.5575
547.234	20.9355
550.272	37.5912
553.308	59.1477
556.344	64.6414
559.378	58.4115
562.411	71.9453
565.444	87.3806
568.475	69.673
571.505	64.8541
574.535	75.0101
577.563	90.5956
580.588	93.0748
583.615	80.843
586.64	72.7757
589.662	89.6034
592.686	78.5763
595.708	75.1027
598.727	81.6073
601.747	88.265
604.765	88.3624
607.783	87.7165
610.798	77.461
613.813	77.7596
616.828	45.1765
619.84	62.5514
622.851	86.4097
625.862	71.9564
628.873	91.7328
631.881	113.714
634.889	86.5586
637.895	105.624
640.9	93.7414
643.904	66.9245
646.908	65.3261
649.91	34.9591
652.909	87.728
655.91	61.7123
658.909	65.017
661.907	64.0484
664.903	82.3896
667.899	82.8121
670.895	61.8802
673.887	74.2709
676.88	56.489
679.871	56.995
682.862	47.138
685.851	13.0459
688.84	45.3835
691.827	39.5387
694.812	7.82055
697.799	23.6302
700.782	38.5526
703.765	20.9812
706.746	32.978
709.727	34.6935
712.706	19.4065
715.685	17.322
718.663	12.9625
721.639	33.2269
724.615	42.4187
727.59	15.6863
730.563	45.2256
733.536	47.8153
736.506	64.1691
739.477	55.4627
742.446	43.6351
745.413	61.8997
748.381	52.0581
751.346	50.6182
754.312	31.1919
757.275	36.5354
760.239	29.2582
763.2	32.6174
766.16	20.4859
769.121	17.0906
772.079	25.92
775.036	17.4384
777.992	-7.28916
780.947	15.8275
783.901	-20.2931
786.855	8.82062
789.807	1.93474
792.758	-10.0848
795.709	28.4366
798.658	3.36431
801.606	0.323389
804.554	12.4781
807.498	1.49425
810.444	41.245
813.388	47.8107
816.33	63.7078
819.273	73.3056
822.212	80.4833
825.153	74.3497
828.091	64.32
831.027	74.876
833.965	86.405
836.9	106.342
839.834	99.2059
842.769	126.88
845.701	107.129
848.632	126.944
851.562	129.427
854.491	139.393
857.419	121.661
860.347	112.517
863.273	112.947
866.196	91.3272
869.121	87.8634
872.044	63.3707
874.966	63.3297
877.886	63.4088
880.807	64.9229
883.726	38.335
886.643	28.7509
889.561	19.3409
892.475	50.2654
895.389	39.6123
898.304	67.9914
901.216	59.4529
904.127	63.9238
907.037	59.5187
909.948	71.1285
912.856	74.6749
915.764	88.0109
918.67	68.5296
921.575	85.1831
924.479	79.9075
927.381	77.5728
930.284	71.8874
933.185	67.476
936.086	77.0802
938.983	65.5181
941.882	68.9496
944.78	47.6521
947.675	51.9747
950.571	52.7646
953.464	38.4244
956.358	50.6331
959.249	36.3699
962.139	34.6344
965.028	33.4091
967.919	1.61957
970.806	11.4611
973.693	-6.43861
976.578	8.64965
979.463	9.40491
982.346	0.311451
985.229	-12.4538
988.111	3.07742
990.992	-1.22512
993.87	9.30475
996.749	36.8709
999.627	35.992
1002.5	46.8497
1005.38	5.62628
1008.25	24.8194
1011.13	36.8668
1014	15.0392
1016.87	19.2121
1019.74	37.0428
1022.61	28.6657
1025.48	44.4828
1028.35	59.0761
1031.21	27.9311
1034.08	42.8251
1036.94	57.8138
1039.8	67.9054
1042.67	52.952
1045.53	36.9028
1048.39	36.9813
1051.25	38.4784
1054.1	54.1171
1056.96	42.5297
1059.82	17.8162
1062.67	5.03361
1065.53	21.8527
1068.38	-2.41478
1071.23	30.5275
1074.08	25.7289
1076.93	8.15344
1079.78	17.8462
1082.63	14.5027
1085.48	26.5273
1088.32	16.7358
1091.17	33.0251
1094.01	28.3966
1096.85	29.82
1099.7	3.61869
1102.54	21.2938
1105.38	-5.55856
1108.21	34.5966
1111.05	34.1756
1113.89	-10.6575
1116.72	-14.3466
1119.56	-13.9586
1122.39	0.212639
1125.23	9.80086
1128.06	23.5269
1130.89	58.0794
1133.72	62.0342
1136.55	68.6414
1139.37	47.9358
1142.2	38.7361
1145.03	19.661
1147.85	27.4871
1150.67	18.7217
1153.5	2.51711
1156.32	10.322
1159.14	-9.16521
1161.96	30.4616
1164.78	24.5245
1167.6	22.6634
1170.41	45.3734
1173.23	44.6479
1176.04	73.0595
1178.86	90.4591
1181.67	80.5376
1184.48	50.0329
1187.29	60.9458
1190.1	28.3956
1192.91	43.3032
1195.72	41.8044
1198.52	6.68921
1201.33	17.9866
1204.13	-16.3244
1206.94	10.6569
1209.74	15.927
1212.54	-2.05132
1215.34	18.9495
1218.14	8.43141
1220.94	13.2807
1223.74	15.0661
1226.54	22.5786
1229.33	35.7905
1232.13	60.8992
1234.92	68.5412
1237.71	60.5071
1240.5	75.5638
1243.3	91.861
1246.09	86.9717
1248.87	105.658
1251.66	89.1713
1254.45	110.139
1257.23	83.4294
1260.02	96.7785
1262.8	87.377
1265.59	88.8958
1268.37	89.7228
1271.15	110.734
1273.93	143.585
1276.71	126.819
1279.48	162.93
1282.26	167.809
1285.04	144.533
1287.81	138.026
1290.58	140.85
1293.36	145.012
1296.13	158.319
1298.9	145.863
1301.67	172.213
1304.44	151.432
1307.21	143.074
1309.98	151.815
1312.74	156.869
1315.51	121.036
1318.27	107.542
1321.03	100.37
1323.8	56.7239
1326.56	70.8871
1329.32	73.3367
1332.08	58.7225
1334.83	70.8635
1337.59	50.7759
1340.35	41.628
1343.1	35.3524
1345.86	7.84895
1348.61	28.4983
1351.36	21.9812
1354.11	5.1953
1356.86	5.72077
1359.61	6.14985
1362.36	-10.097
1365.11	0.228725
1367.86	-2.14282
1370.6	-9.70872
1373.35	-16.3241
1376.09	-20.9798
1378.83	6.84634
1381.57	-0.713592
1384.31	11.8008
1387.05	13.664
1389.79	-4.47857
1392.53	-4.26392
1395.27	-4.76132
1398	-10.7787
1400.74	-3.1917
1403.47	-14.7599
1406.2	-6.04958
1408.94	0.98077
1411.67	31.4044
1414.4	42.9398
1417.12	43.3841
1419.85	41.4336
1422.58	45.9166
1425.31	62.6426
1428.03	62.5946
1430.75	92.374
1433.48	85.9722
1436.2	85.9911
1438.92	97.6464
1441.64	95.5213
1444.36	108.797
1447.08	96.5214
1449.79	131.069
1452.51	71.7405
1455.23	88.8553
1457.94	83.7747
1460.66	70.6924
1463.37	69.4002
1466.08	46.6037
1468.79	33.2917
1471.5	8.89196
1474.21	14.2054
1476.92	-1.9884
1479.62	10.2665
1482.33	12.1718
1485.03	-25.1928
1487.74	-13.0276
1490.44	13.553
1493.14	-6.74395
1495.84	-2.84246
1498.54	-20.1429
1501.24	-11.434
1503.94	-2.88831
1506.63	-12.1498
1509.33	-10.6853
1512.03	10.7537
1514.72	-3.07539
1517.41	-10.5127
1520.11	7.296
1522.8	26.8579
1525.49	16.6987
1528.18	25.8798
1530.87	38.683
1533.55	19.5593
1536.24	51.4286
1538.93	29.4307
1541.61	54.0999
1544.29	61.0553
1546.98	66.3425
1549.66	47.7283
1552.34	57.4626
1555.02	96.3301
1557.7	78.7464
1560.38	68.8476
1563.05	80.2787
1565.73	93.1538
1568.4	69.0705
1571.08	73.5003
1573.75	87.0916
1576.42	105.82
1579.09	89.7702
1581.77	103.195
1584.43	115.488
1587.1	129.299
1589.77	149.227
1592.44	174.692
1595.1	191.944
1597.77	219.009
1600.43	243.518
1603.09	326.722
1605.76	399.304
1608.42	448.296
1611.08	474.429
1613.74	478.116
1616.39	427.5
1619.05	340.406
1621.71	255.777
1624.36	168.159
1627.02	136.693
1629.67	105.692
1632.32	61.7163
1634.97	43.6883
1637.62	61.1626
1640.27	74.8731
1642.92	22.0901
1645.57	61.8204
1648.22	66.7658
1650.86	68.8738
1653.51	48.8111
1656.15	40.5241
1658.79	49.1118
1661.44	56.4495
1664.08	63.7883
1666.72	86.4946
1669.36	53.0632
1671.99	34.1678
1674.63	71.1845
1677.27	51.9123
1679.9	58.2467
1682.54	40.8824
1685.17	55.012
1687.81	34.6191
1690.44	64.8884
1693.07	38.7038
1695.7	74.1732
1698.33	55.3618
1700.96	62.8913
1703.58	46.3828
1706.21	81.5026
1708.83	116.227
1711.46	157.254
1714.08	178.325
1716.7	196.061
1719.32	202.35
1721.94	191.602
1724.56	175.31
1727.18	155.918
1729.8	140.651
1732.42	139.044
1735.03	133.363
1737.65	118.532
1740.26	79.8646
1742.88	100.777
1745.49	71.1714
1748.1	74.3519
1750.71	54.5261
1753.32	61.0285
1755.93	86.6769
1758.53	32.3123
1761.14	62.4424
1763.75	48.9744
1766.35	32.9148
1768.96	43.7292
1771.56	63.5128
1774.16	57.6813
1776.76	48.301
1779.36	70.6116
1781.96	32.8307
1784.56	33.4755
1787.16	27.7441
1789.75	40.4353
1792.35	12.4612
1794.94	36.3661
1797.54	30.2661
1800.13	29.6391
1802.72	24.2068
1805.31	23.3289
1807.9	49.2886
1810.49	-0.284345
1813.08	36.1464
1815.67	19.4838
1818.25	8.88004
1820.84	27.8909
1823.42	16.2489
1826.01	-7.17903
1828.59	25.394
1831.17	-23.1427
1833.75	-15.3099
1836.33	5.48614
1838.91	-41.3096
1841.49	-22.1302
1844.07	-7.44186
1846.64	-15.7648
1849.22	-15.1714
1851.79	8.21194
1854.36	8.77811
1856.94	18.664
1859.51	-4.03594
1862.08	-2.07941
1864.65	-20.565
1867.22	-15.7677
1869.79	-8.07778
1872.35	-12.2094
1874.92	-19.7854
1877.49	9.65731
1880.05	6.01989
1882.61	-4.9886
1885.18	24.5629
1887.74	25.0974
1890.3	31.6968
1892.86	12.1845
1895.42	29.9734
1897.97	24.032
1900.53	34.7667
1903.09	40.4604
1905.64	23.6191
1908.2	33.3916
1910.75	45.2205
1913.3	32.6732
1915.86	34.6467
1918.41	31.8502
1920.96	23.2232
1923.5	24.9204
1926.05	23.1627
1928.6	27.4257
1931.15	30.8894
1933.69	25.7806
1936.24	11.2903
1938.78	0.709647
1941.32	-1.27264
1943.86	27.3833
1946.4	-14.4718
1948.94	9.12256
1951.48	24.0309
1954.02	-15.3453
1956.56	-13.4843
1959.09	-15.4876
1961.63	-33.4996
1964.16	-21.453
1966.7	-8.14527
1969.23	-13.2847
1971.76	8.79584
1974.29	-28.5585
1976.82	-31.2469
1979.35	-7.46968
1981.88	-6.60258
1984.41	-1.90122
1986.93	13.2845
1989.46	11.3549
1991.98	17.499
1994.51	14.8612
1997.03	25.1439
1999.55	30.6974
2002.07	15.7817
2004.59	50.6711
2007.11	43.0927
2009.63	43.3012
2012.15	6.70126
2014.66	47.9334
2017.18	45.3944
2019.69	31.6539
2022.21	68.7095
2024.72	68.1087
2027.23	61.0684
2029.75	66.5185
2032.26	69.8929
2034.77	74.1567
2037.27	54.3765
2039.78	82.566
2042.29	84.8903
2044.79	64.4546
2047.3	83.8529
2049.8	81.2387
2052.31	47.5854
2054.81	77.8766
2057.31	54.636
2059.81	70.9499
2062.31	54.2575
2064.81	63.4553
2067.31	64.2955
2069.8	33.4828
2072.3	30.8649
2074.79	72.67
2077.29	29.693
2079.78	14.0233
2082.27	25.9576
2084.77	29.4977
2087.26	5.35132
2089.75	13.5611
2092.24	20.537
2094.72	32.9817
2097.21	-0.547383
2099.7	8.43081
2102.18	21.5791
2104.67	22.5509
2107.15	-17.9975
2109.63	16.647
2112.11	10.1497
2114.6	35.5047
2117.08	27.6717
2119.56	38.7636
2122.03	47.9726
2124.51	24.6105
2126.99	34.7007
2129.46	38.5913
2131.94	31.5231
2134.41	62.4871
2136.89	40.8382
2139.36	30.5208
2141.83	56.9084
2144.3	53.8497
2146.77	25.2033
2149.24	67.8157
2151.71	39.5076
2154.17	85.8703
2156.64	68.4524
2159.1	70.7832
2161.57	55.9303
2164.03	59.9933
2166.49	60.4554
2168.96	85.375
2171.42	73.8385
2173.88	52.3466
2176.34	75.0758
2178.79	63.1563
2181.25	50.5551
2183.71	75.7373
2186.16	50.4792
2188.62	43.3156
2191.07	35.5312
2193.53	41.5413
2195.98	56.3426
2198.43	42.2491
2200.88	13.3794
2203.33	43.6931
2205.78	38.768
2208.23	56.3415
2210.67	24.4712
2213.12	27.1712
2215.56	48.0937
2218.01	70.7134
2220.45	51.7484
2222.89	38.5342
2225.33	43.8018
2227.78	24.8068
2230.22	23.7848
2232.66	36.5605
2235.09	-4.88786
2237.53	20.4295
2239.97	20.0705
2242.4	20.3664
2244.84	14.8965
2247.27	4.278
2249.7	22.4713
2252.14	21.8822
2254.57	16.5955
2257	12.2518
2259.43	39.5085
2261.86	-1.20243
2264.28	5.89924
2266.71	22.5263
2269.14	19.8118
2271.56	16.0655
2273.99	38.3132
2276.41	-4.08181
2278.83	1.61634
2281.26	34.5883
2283.67	66.2711
2286.1	15.6694
2288.52	17.9937
2290.93	21.8921
2293.35	26.0694
2295.77	-3.25278
2298.18	35.5896
2300.6	31.8673
2303.01	31.7926
2305.43	27.3224
2307.84	31.8015
2310.25	18.6797
2312.66	19.4376
2315.07	31.8279
2317.48	-16.403
2319.89	42.8082
2322.29	16.6437
2324.7	24.9938
2327.11	-11.7487
2329.51	33.8193
2331.91	3.25732
2334.32	31.9637
2336.72	55.0663
2339.12	45.7933
2341.52	-10.0346
2343.92	21.5229
2346.32	-2.70168
2348.72	10.3232
2351.11	-19.0633
2353.51	18.7857
2355.91	32.7525
2358.3	43.7085
2360.69	-10.631
2363.09	16.4995
2365.48	28.0767
2367.87	24.1609
2370.26	30.4677
2372.65	14.402
2375.04	36.5722
2377.42	-3.16518
2379.81	-6.3837
2382.2	-19.3995
2384.58	59.5817
2386.97	11.1353
2389.35	9.66113
2391.73	35.8148
2394.11	15.5682
2396.5	-3.59245
2398.87	-23.994
2401.25	7.20778
2403.63	17.0054
2406.01	11.6842
2408.39	30.2262
2410.76	16.9643
2413.14	5.64636
2415.51	37.7973
2417.89	7.68994
2420.26	-12.2738
2422.63	-9.79571
2425	6.77461
2427.37	61.994
2429.74	41.4596
2432.11	45.7358
2434.47	17.1038
2436.84	28.8266
2439.21	16.2865
2441.57	19.0483
2443.93	4.53938
2446.3	5.29353
2448.66	25.7462
2451.02	24.3413
2453.38	23.639
2455.74	35.6689
2458.1	69.9989
2460.46	53.5727
2462.82	47.9296
2465.17	27.1718
2467.53	34.9447
2469.88	-12.8661
2472.24	5.30059
2474.59	19.2937
2476.94	22.5009
2479.29	39.1232
2481.64	80.1242
2483.99	4.08334
2486.34	21.8573
2488.69	51.787
2491.04	50.3583
2493.38	28.3925
2495.73	42.2737
2498.08	74.3598
2500.42	55.552
2502.76	89.0759
2505.11	67.6064
2507.45	90.1636
2509.79	66.8626
2512.13	59.0471
2514.47	97.528
2516.8	79.5657
2519.14	70.1616
2521.48	66.4135
2523.81	72.6876
2526.15	60.4077
2528.48	66.34
2530.81	48.1847
2533.15	80.3242
2535.48	56.0519
2537.81	50.2298
2540.14	65.4814
2542.47	41.585
2544.8	58.2525
2547.12	70.7655
2549.45	56.4426
2551.77	61.6831
2554.1	65.6626
2556.42	72.9095
2558.75	70.9947
2561.07	62.2402
2563.39	34.2741
2565.71	66.2676
2568.03	16.2677
2570.35	55.4655
2572.67	94.8765
2574.99	43.9949
2577.3	89.3513
2579.62	108.738
2581.93	96.3993
2584.25	80.8876
2586.56	125.867
2588.87	135.428
2591.19	123.017
2593.5	150.806
2595.81	172.642
2598.11	179.863
2600.42	193.82
2602.73	171.596
2605.04	210.433
2607.34	216.793
2609.65	203.626
2611.95	216.558
2614.26	217.434
2616.56	240.046
2618.86	291.488
2621.16	274.037
2623.46	282.583
2625.76	285.331
2628.06	284.808
2630.36	282.457
2632.65	294.532
2634.95	327.186
2637.25	297.3
2639.54	315.972
2641.83	262.147
2644.13	244.001
2646.42	291.169
2648.71	301.103
2651	320.21
2653.29	299.087
2655.58	309.435
2657.87	296.984
2660.15	362.78
2662.44	334.73
2664.72	383.164
2667.01	378.416
2669.29	427.534
2671.58	377.417
2673.86	382.594
2676.14	413.828
2678.42	389.554
2680.7	331.328
2682.98	294.983
2685.26	263.421
2687.54	293.035
2689.81	274.376
2692.09	234.821
2694.36	199.02
2696.64	195.771
2698.91	203.094
2701.18	196.441
2703.45	235.044
2705.72	211.802
2707.99	223.555
2710.26	241.126
2712.53	218.82
2714.8	217.121
2717.07	238.992
2719.33	244.142
2721.6	250.179
2723.86	256.66
2726.13	282.679
2728.39	278.652
2730.65	248.999
2732.91	251.261
2735.17	267.756
2737.43	249.543
2739.69	274.44
2741.95	267.506
2744.21	285.733
2746.46	241.879
2748.72	223.063
2750.97	244.117
2753.23	275.008
2755.48	185.571
2757.73	259.435
2759.98	258.196
2762.24	244.547
2764.49	230.84
2766.73	233.391
2768.98	225.407
2771.23	235.228
2773.48	209.628
2775.72	212.057
2777.97	228.132
2780.21	223.456
2782.46	260.363
2784.7	213.465
2786.94	226.07
2789.18	210.786
2791.42	197.489
2793.66	175.733
2795.9	191.292
2798.14	171.941
2800.38	157.34
2802.61	152.692
2804.85	164.45
2807.08	155.083
2809.32	149.967
2811.55	161.091
2813.78	130.467
2816.02	115.325
2818.25	105.261
2820.48	123.142
2822.71	103.258
2824.94	77.1037
2827.16	81.1846
2829.39	97.0991
2831.61	67.3109
2833.84	65.6382
2836.06	67.3308
2838.29	70.8251
2840.51	88.8161
2842.73	73.0776
2844.96	77.4168
2847.18	95.8845
2849.4	109.345
2851.61	127.896
2853.83	153.135
2856.05	121.941
2858.27	129.007
2860.48	145.617
2862.7	147.52
2864.91	176.287
2867.13	183.283
2869.34	198.949
2871.55	204.202
2873.76	206.468
2875.97	193.513
2878.18	195.891
2880.39	193.931
2882.6	194.746
2884.81	195.823
2887.01	216.688
2889.22	196.635
2891.42	263.492
2893.63	272.073
2895.83	284.095
2898.03	310.436
2900.23	327.218
2902.43	347.522
2904.63	327.8
2906.83	349.773
2909.03	345.538
2911.09	408.199
2913.31	385.682
2915.54	440.479
2917.76	485.944
2919.99	513.823
2922.21	550.752
2924.43	516.252
2926.65	511.671
2928.87	524.358
2931.09	478.632
2933.31	468.375
2935.53	472.816
2937.75	451.545
2939.97	454.45
2942.18	455.523
2944.4	404.458
2946.61	381.822
2948.83	434.754
2951.04	379.68
2953.25	343.439
2955.47	401.913
2957.68	397.744
2959.89	378.897
2962.1	329.565
2964.31	332.865
2966.52	307.196
2968.73	236.506
2970.93	208.637
2973.14	174.693
2975.35	171.175
2977.55	131.613
2979.76	135.112
2981.96	102.013
2984.16	100.688
2986.37	90.6601
2988.57	76.8781
2990.77	41.8902
2992.97	88.0443
2995.17	62.114
2997.37	60.8422
2999.57	57.9529
3001.77	23.4172
3003.96	12.291
3006.16	4.77869
3008.36	34.55
3010.55	-14.3095
3012.75	-44.7032
3014.94	19.8297
3017.13	9.31074
3019.32	15.2171
3021.52	15.0133
3023.71	7.38532
3025.9	6.58476
3028.09	39.9695
3030.28	-18.1113
3032.46	13.1924
3034.65	-22.6062
3036.84	12.2705
3039.02	11.4697
3041.21	-12.6359
3043.39	9.21857
3045.58	23.109
3047.76	6.78446
3049.94	-12.585
3052.13	3.94769
3054.31	-24.6245
3056.49	-4.50655
3058.67	-9.96817
3060.85	34.4908
3063.03	84.9077
3065.2	73.9793
3067.38	49.2213
3069.56	118.322
3071.73	125.23
3073.91	96.2684
3076.08	107.815
3078.26	101.324
3080.43	128.507
3082.6	126.529
3084.77	82.123
3086.95	74.5474
3089.12	47.8168
3091.29	49.7261
3093.46	96.976
3095.62	37.3264
3097.79	41.6322
3099.96	53.9501
3102.12	72.8363
3104.29	36.8993
3106.45	94.0602
3108.62	87.4616
3110.78	77.6666
3112.95	57.1668
3115.11	76.3503
3117.27	70.0233
3119.43	58.6059
3121.59	41.231
3123.75	22.9068
3125.91	31.5704
3128.07	51.8603
3130.22	31.9605
3132.38	26.7999
3134.54	-1.42535
3136.69	42.3849
3138.85	47.7482
3141	52.251
3143.16	50.8255
3145.31	21.7603
3147.46	44.8465
3149.61	44.53
3151.76	22.1324
3153.91	17.3305
3156.06	63.1713
3158.21	9.28013
3160.36	38.9359
3162.51	9.50893
3164.65	46.4311
3166.8	48.0626
3168.94	30.8345
3171.09	15.6371
3173.23	67.2468
3175.38	78.996
3177.52	25.1727
3179.66	29.3268
3181.8	56.5485
3183.94	37.2098
3186.08	55.0479
3188.22	27.6389
3190.36	51.5598
3192.5	40.044
3194.63	60.6664
3196.77	36.7634
3198.91	38.0222
3201.04	22.2935
3203.18	54.2637
3205.31	-2.38918
3207.44	15.8449
3209.58	53.8131
3211.71	8.22575
3213.84	-3.12294
3215.97	5.79184
3218.1	60.0952
3220.23	39.0502
3222.36	38.0379
3224.49	54.7244
3226.61	35.8286
3228.74	66.0052
3230.87	22.3093
3232.99	21.3416
3235.11	51.9692
3237.24	62.025
3239.36	24.4644
3241.48	41.2809
3243.61	49.6979
3245.73	57.5179
3247.85	17.5083
3249.97	41.2949
3252.09	35.3169
3254.2	58.8631
3256.32	27.9635
3258.44	33.3384
3260.56	13.0373
3262.67	86.3615
3264.79	35.1261
3266.9	44.4292
3269.02	86.3211
3271.13	38.31
3273.24	60.9501
3275.35	21.3258
3277.46	36.908
3279.57	47.9676
3281.68	90.7226
3283.79	56.4234
3285.9	31.4168
3288.01	14.0506
3290.12	61.5477
3292.22	20.7049
3294.33	61.842
3296.43	68.3071
3298.54	30.3916
3300.64	43.5303
3302.75	68.7576
3304.85	66.16
3306.95	60.519
3309.05	77.218
3311.15	57.6001
3313.25	69.4337
3315.35	53.1152
3317.45	122.822
3319.55	86.8395
3321.65	94.4083
3323.74	122.341
3325.84	112.455
3327.93	116.199
3330.03	154.528
3332.12	152.564
3334.21	139.511
3336.31	87.7264
3338.4	71.3031
3340.49	27.349
3342.58	41.2161
3344.67	2.46859
3346.76	20.1843
3348.85	-12.4669
3350.94	7.33787
3353.02	-11.458
3355.11	3.14605
3357.2	42.3195
3359.28	93.8754
3361.37	142.433
3363.45	116.178
3365.53	123.7
3367.62	142.045
3369.7	129.332
3371.78	64.5862
3373.86	100.47
3375.94	113.376
3378.02	67.0699
3380.1	30.7935
3382.18	77.8712
3384.25	65.8935
3386.33	36.4518
3388.41	31.3252
3390.48	34.1675
3392.56	-1.99538
3394.63	9.20596
3396.71	19.2935
3398.78	0.526931
3400.85	-29.6536
3402.92	-12.3917
3404.99	6.51078
3407.06	2.48253
3409.13	6.71445
3411.2	-34.416
3413.27	-11.6496
3415.34	1.7758
3417.4	9.35417
3419.47	29.7298
3421.54	52.5354
3423.6	37.913
3425.67	50.2783
3427.73	26.0677
3429.79	60.159
3431.86	51.8897
3433.92	64.2157
3435.98	68.5025
3438.04	60.4906
3440.1	35.1907
3442.16	76.0083
3444.22	38.401
3446.27	42.8004
3448.33	59.0365
3450.39	63.6496
3452.44	52.9911
3454.5	53.2651
3456.55	67.0265
3458.61	94.6461
3460.66	38.3662
3462.71	25.6579
3464.77	27.0092
3466.82	55.1695
3468.87	26.6652
3470.92	35.8261
3472.97	36.9321
3475.02	27.2084
3477.06	21.7666
3479.11	32.4798
3481.16	-14.5388
3483.2	-15.3323
3485.25	-23.5063
3487.3	4.24775
3489.34	11.0785
3491.38	-30.3545
3493.43	-37.3043
3495.47	-54.5578
3497.51	-51.1196
3499.55	-54.3968
