200.057	-23.4977
203.219	-4.40417
206.378	8.42749
209.539	43.9341
212.696	58.5367
215.854	70.9012
219.009	79.6177
222.165	85.6899
225.318	106.155
228.472	116.746
231.622	104.819
234.774	118.838
237.923	132.204
241.07	130.175
244.217	136.344
247.364	142.479
250.508	151.464
253.652	170.33
256.794	172.707
259.937	193.553
263.077	217.092
266.216	231.825
269.354	239.864
272.491	228.303
275.626	215.841
278.761	210.005
281.895	179.189
285.027	163.703
288.159	152.313
291.287	127.136
294.417	115.165
297.545	105.026
300.672	95.1385
303.799	86.4541
306.922	61.0175
310.046	51.6099
313.169	52.9142
316.289	49.8519
319.41	33.4736
322.528	38.7336
325.647	43.0098
328.764	33.3252
331.879	44.6343
334.993	46.0874
338.107	61.609
341.219	50.637
344.332	60.0005
347.441	58.8054
350.549	62.6183
353.659	51.7272
356.765	46.6029
359.87	56.2802
362.975	35.0947
366.078	28.3843
369.18	7.93372
372.281	14.1737
375.383	-5.86035
378.482	0.0968018
381.58	2.25439
384.675	-10.3881
387.771	-4.55139
390.865	-6.39075
393.959	3.20325
397.052	11.989
400.144	12.0659
403.234	34.0751
406.322	39.9313
409.411	35.4436
412.498	30.9792
415.583	25.2008
418.668	33.6691
421.75	36.4437
424.834	47.1552
427.916	45.5372
430.996	58.2695
434.074	49.7965
437.153	45.4812
440.229	51.2709
443.306	42.6278
446.381	45.5696
449.454	40.8931
452.526	46.8539
455.599	20.0767
458.669	24.8962
461.738	15.989
464.806	34.6482
467.873	55.2217
470.939	71.4913
474.004	71.6918
477.067	98.5151
480.13	90.8275
483.192	104.165
486.253	70.0132
489.313	71.8829
492.369	62.5571
495.427	48.0507
498.484	56.5555
501.54	42.5717
504.592	36.4926
507.646	25.1361
510.698	30.8787
513.748	23.6172
516.799	8.10547
519.846	5.80017
522.895	8.48535
525.94	-3.13599
528.985	8.52271
532.03	-6.04407
535.073	-7.27661
538.114	-0.243408
541.157	-2.69226
544.196	-2.89063
547.234	10.3419
550.272	16.4323
553.308	18.9004
556.344	-1.67285
559.378	16.8265
562.411	23.1479
565.444	35.88
568.475	28.887
571.505	22.1731
574.535	30.0177
577.563	25.4304
580.588	25.5364
583.615	39.2523
586.64	34.9731
589.662	47.1351
592.686	29.6683
595.708	40.5436
598.727	44.2745
601.747	31.8638
604.765	37.4086
607.783	26.4331
610.798	27.2445
613.813	21.6215
616.828	29.3605
619.84	65.3057
622.851	129.672
625.862	245.878
628.873	305.458
631.881	252.386
634.889	140.13
637.895	69.6984
640.9	33.1321
643.904	21.6606
646.908	8.41858
649.91	7.49231
652.909	7.31506
655.91	14.5282
658.909	8.90088
661.907	15.2045
664.903	10.775
667.899	1.26465
670.895	-3.06897
673.887	-8.27039
676.88	8.71851
679.871	6.79919
682.862	-11.9138
685.851	-24.1892
688.84	-13.2051
691.827	7.54016
694.812	24.4984
697.799	53.7094
700.782	84.5275
703.765	87.33
706.746	46.6101
709.727	26.6636
712.706	-25.2983
715.685	-19.5298
718.663	-15.1121
721.639	-13.3445
724.615	-25.8639
727.59	-14.1951
730.563	-15.6775
733.536	-3.35913
736.506	2.07715
739.477	6.95532
742.446	6.69092
745.413	-1.02832
748.381	9.12231
751.346	9.07056
754.312	-17.6626
757.275	0.799072
760.239	-8.80054
763.2	-24.231
766.16	-31.1887
769.121	-0.290771
772.079	-6.22412
775.036	-14.7124
777.992	1.88159
780.947	-7.10303
783.901	16.988
786.855	41.2737
789.807	68.9226
792.758	103.964
795.709	121.8
798.658	125.508
801.606	119.522
804.554	117.689
807.498	113.625
810.444	103.406
813.388	107.046
816.33	113.893
819.273	117.241
822.212	128.705
825.153	138.657
828.091	162.007
831.027	166.114
833.965	184.946
836.9	222.775
839.834	250.724
842.769	318.353
845.701	411.504
848.632	495.774
851.562	561.019
854.491	559.104
857.419	506.434
860.347	434.243
863.273	346.374
866.196	303.079
869.121	268.536
872.044	248.712
874.966	243.838
877.886	224.786
880.807	199.537
883.726	157.093
886.643	124.956
889.561	97.4512
892.475	98.6179
895.389	90.1609
898.304	102.169
901.216	92.4277
904.127	103.181
907.037	114.051
909.948	117.645
912.856	102.097
915.764	111.873
918.67	121.213
921.575	118.642
924.479	113.766
927.381	117.256
930.284	134.292
933.185	116.882
936.086	138.566
938.983	121.064
941.882	120.394
944.78	103.34
947.675	82.3718
950.571	73.4548
953.464	61.2634
956.358	48.8601
959.249	39.9465
962.139	39.4753
965.028	21.1475
967.919	16.4072
970.806	0.121826
973.693	15.7263
976.578	0.856689
979.463	8.2229
982.346	-7.73584
985.229	-12.249
988.111	9.80542
990.992	3.96436
993.87	11.1411
996.749	0.86377
999.627	4.66211
1002.5	0.473145
1005.38	12.7522
1008.25	12.9578
1011.13	-2.96558
1014	20.8337
1016.87	33.8828
1019.74	60.9019
1022.61	58.4868
1025.48	78.4766
1028.35	106.544
1031.21	108.454
1034.08	176.37
1036.94	142.46
1039.8	131.822
1042.67	132.013
1045.53	130.829
1048.39	118.867
1051.25	113.063
1054.1	105.528
1056.96	109.153
1059.82	104.859
1062.67	101.186
1065.53	107.882
1068.38	97.8655
1071.23	113.328
1074.08	121.383
1076.93	149.73
1079.78	177.353
1082.63	191.409
1085.48	246.161
1088.32	241.597
1091.17	268.281
1094.01	308.323
1096.85	334.842
1099.7	372.162
1102.54	397.186
1105.38	362.288
1108.21	317.49
1111.05	278.826
1113.89	224.319
1116.72	190.536
1119.56	159.078
1122.39	145.662
1125.23	129.45
1128.06	97.408
1130.89	114.215
1133.72	99.7517
1136.55	100.362
1139.37	89.2222
1142.2	82.8801
1145.03	68.3081
1147.85	59.113
1150.67	54.7341
1153.5	51.5972
1156.32	18.7236
1159.14	49.5627
1161.96	39.9097
1164.78	72.885
1167.6	108.063
1170.41	139.335
1173.23	145.303
1176.04	133.692
1178.86	123.261
1181.67	85.4243
1184.48	61.4099
1187.29	35.2209
1190.1	18.2522
1192.91	0.963623
1195.72	25.7051
1198.52	13.8538
1201.33	13.1057
1204.13	-5.01611
1206.94	15.0046
1209.74	6.3877
1212.54	-7.60645
1215.34	1.34326
1218.14	5.46875
1220.94	-4.21069
1223.74	13.6968
1226.54	36.0896
1229.33	18.114
1232.13	39.8604
1234.92	43.6331
1237.71	61.7092
1240.5	65.4146
1243.3	82.6113
1246.09	88.7463
1248.87	110.915
1251.66	124.501
1254.45	165.125
1257.23	181.979
1260.02	263.75
1262.8	356.044
1265.59	469.733
1268.37	557.381
1271.15	698.263
1273.93	787.638
1276.71	808.137
1279.48	788.403
1282.26	728.447
1285.04	662.889
1287.81	614.995
1290.58	566.066
1293.36	548.698
1296.13	525.573
1298.9	493.171
1301.67	458.614
1304.44	412.759
1307.21	356.245
1309.98	304.182
1312.74	246.054
1315.51	214.552
1318.27	184.063
1321.03	174.704
1323.8	154.823
1326.56	145.652
1329.32	132.159
1332.08	103.557
1334.83	118.128
1337.59	113.217
1340.35	103.519
1343.1	108.555
1345.86	92.3188
1348.61	96.1018
1351.36	85.8604
1354.11	71.1738
1356.86	73.0034
1359.61	71.3057
1362.36	84.5627
1365.11	85.7659
1367.86	92.3862
1370.6	90.0076
1373.35	124.631
1376.09	153.327
1378.83	173.979
1381.57	178.544
1384.31	179.965
1387.05	183.145
1389.79	178.388
1392.53	159.091
1395.27	157.51
1398	134.118
1400.74	137.549
1403.47	130.847
1406.2	124.014
1408.94	152.448
1411.67	148.9
1414.4	123.901
1417.12	123.229
1419.85	128.722
1422.58	129.737
1425.31	166.958
1428.03	175.726
1430.75	225.034
1433.48	262.929
1436.2	286.367
1438.92	309.519
1441.64	336.924
1444.36	346.924
1447.08	384.828
1449.79	389.52
1452.51	412.523
1455.23	380.086
1457.94	339.394
1460.66	305.761
1463.37	273.473
1466.08	236.676
1468.79	185.577
1471.5	155.218
1474.21	132.709
1476.92	92.5723
1479.62	74.1094
1482.33	49.894
1485.03	32.9263
1487.74	29.0684
1490.44	13.1506
1493.14	18.4585
1495.84	-7.42456
1498.54	14.3323
1501.24	5.60229
1503.94	-3.87354
1506.63	-25.3943
1509.33	-29.3813
1512.03	-23.6724
1514.72	-26.8945
1517.41	-27.0571
1520.11	-23.5728
1522.8	-36.1399
1525.49	-1.17749
1528.18	9.72925
1530.87	7.96094
1533.55	-1.50537
1536.24	-7.11523
1538.93	-7.46021
1541.61	1.77319
1544.29	-22.8848
1546.98	-7.76831
1549.66	4.85376
1552.34	-1.65454
1555.02	-14.1133
1557.7	-12.228
1560.38	1.75903
1563.05	21.1443
1565.73	13.7615
1568.4	21.0198
1571.08	22.7314
1573.75	58.917
1576.42	61.7112
1579.09	57.957
1581.77	43.7571
1584.43	68.4404
1587.1	65.7573
1589.77	105.093
1592.44	155.312
1595.1	258.034
1597.77	391.473
1600.43	643.397
1603.09	986.945
1605.76	1538.49
1608.42	2084.2
1611.08	2451.1
1613.74	2328.58
1616.39	1754.69
1619.05	1096.79
1621.71	598.192
1624.36	334.42
1627.02	207.806
1629.67	120.662
1632.32	99.3486
1634.97	62.5007
1637.62	37.9075
1640.27	32.6333
1642.92	35.8328
1645.57	31.2729
1648.22	23.1621
1650.86	34.772
1653.51	8.74365
1656.15	18.6667
1658.79	9.56689
1661.44	30.4075
1664.08	4.99976
1666.72	31.0562
1669.36	6.45142
1671.99	35.3677
1674.63	40.8079
1677.27	35.3062
1679.9	45.1055
1682.54	38.387
1685.17	27.3037
1687.81	39.5491
1690.44	58.29
1693.07	42.4194
1695.7	86.0156
1698.33	123.72
1700.96	167.353
1703.58	317.006
1706.21	550.282
1708.83	866.493
1711.46	1205.61
1714.08	1476.49
1716.7	1496.26
1719.32	1430.49
1721.94	1286.42
1724.56	1117.8
1727.18	923.458
1729.8	751.133
1732.42	582.337
1735.03	453.624
1737.65	345.887
1740.26	265.15
1742.88	204.661
1745.49	147.759
1748.1	129.809
1750.71	113.197
1753.32	77.6445
1755.93	73.8284
1758.53	53.0112
1761.14	67.6978
1763.75	34.1331
1766.35	36.6091
1768.96	38.4177
1771.56	24.1958
1774.16	41.0183
1776.76	6.27417
1779.36	8.84814
1781.96	11.9563
1784.56	-0.735596
1787.16	6.13623
1789.75	3.71094
1792.35	-16.2144
1794.94	25.4602
1797.54	-15.0522
1800.13	2.44092
1802.72	-0.138916
1805.31	16.5598
1807.9	10.8542
1810.49	16.3125
1813.08	3.1521
1815.67	15.6667
1818.25	-1.94556
1820.84	-6.86963
1823.42	3.35059
1826.01	9.08521
1828.59	-0.234863
1831.17	6.49463
1833.75	-7.06372
1836.33	3.42944
1838.91	-2.22437
1841.49	-19.9409
1844.07	-10.1196
1846.64	-0.0131836
1849.22	-8.21924
1851.79	-7.9375
1854.36	-1.56958
1856.94	3.35303
1859.51	-17.3254
1862.08	-9.68262
1864.65	-2.40869
1867.22	-16.3501
1869.79	-9.70483
1872.35	-15.6545
1874.92	-14.6016
1877.49	3.84106
1880.05	12.1494
1882.61	8.44653
1885.18	9.40723
1887.74	-7.03491
1890.3	13.0806
1892.86	4.75049
1895.42	25.3701
1897.97	0.82373
1900.53	15.6377
1903.09	4.12378
1905.64	24.5549
1908.2	4.33521
1910.75	18.2925
1913.3	7.36597
1915.86	35.4565
1918.41	18.7632
1920.96	4.64551
1923.5	17.1089
1926.05	35.5244
1928.6	0.862549
1931.15	-6.76392
1933.69	8.75586
1936.24	0.416016
1938.78	18.2117
1941.32	16.4653
1943.86	2.2168
1946.4	4.11084
1948.94	16.4709
1951.48	12.1106
1954.02	0.786865
1956.56	14.2891
1959.09	6.31714
1961.63	12.9421
1964.16	1.45557
1966.7	-2.18774
1969.23	-7.13623
1971.76	6.45947
1974.29	-3.4873
1976.82	2.00317
1979.35	7.85718
1981.88	2.5603
1984.41	9.12695
1986.93	11.002
1989.46	19.7952
1991.98	18.5654
1994.51	20.46
1997.03	17.6377
1999.55	14.5571
2002.07	-6.64087
2004.59	21.0767
2007.11	2.15137
2009.63	20.4861
2012.15	-0.537109
2014.66	6.5708
2017.18	3.35059
2019.69	13.1997
2022.21	0.42334
2024.72	14.2458
2027.23	14.0552
2029.75	21.8606
2032.26	32.7766
2034.77	30.2478
2037.27	19.5073
2039.78	20.6907
2042.29	19.9998
2044.79	6.1228
2047.3	19.8013
2049.8	7.28296
2052.31	16.9961
2054.81	8.11475
2057.31	3.87866
2059.81	-0.731689
2062.31	0.752441
2064.81	1.72168
2067.31	0.420166
2069.8	2.06079
2072.3	12.6482
2074.79	-2.60034
2077.29	-12.0059
2079.78	-1.51538
2082.27	-11.1113
2084.77	-10.4905
2087.26	-22.4087
2089.75	-24.687
2092.24	-11.575
2094.72	-0.420898
2097.21	-17.4646
2099.7	-8.21655
2102.18	-27.4832
2104.67	-27.1812
2107.15	-43.2996
2109.63	-22.9333
2112.11	-29.1572
2114.6	-19.1736
2117.08	4.79028
2119.56	-19.6467
2122.03	-15.4197
2124.51	-4.51318
2126.99	-3.51538
2129.46	-10.8977
2131.94	-16.9631
2134.41	-7.13428
2136.89	-26.0173
2139.36	-14.9902
2141.83	-15.4854
2144.3	-17.5393
2146.77	3.78394
2149.24	-15.0496
2151.71	-29.8599
2154.17	2.20898
2156.64	-19.428
2159.1	-29.2356
2161.57	-8.6167
2164.03	-2.28247
2166.49	-17.5771
2168.96	-11.1963
2171.42	-0.770996
2173.88	12.106
2176.34	-9.97534
2178.79	-9.82397
2181.25	-1.02295
2183.71	19.7334
2186.16	2.09937
2188.62	-2.54419
2191.07	-5.28857
2193.53	-1.54663
2195.98	-8.77661
2198.43	-14.0325
2200.88	2.8374
2203.33	-7.86206
2205.78	-3.78198
2208.23	-21.1697
2210.67	-14.3906
2213.12	1.44727
2215.56	-26.1028
2218.01	-24.7485
2220.45	-9.91992
2222.89	-26.7649
2225.33	-23.1855
2227.78	-23.5061
2230.22	-35.3494
2232.66	-25.7224
2235.09	7.71216
2237.53	-1.34619
2239.97	11.8843
2242.4	3.33569
2244.84	-17.3198
2247.27	5.81616
2249.7	-11.9551
2252.14	-19.272
2254.57	-33.4263
2257	-29.0654
2259.43	-21.8359
2261.86	-41.3987
2264.28	-15.9038
2266.71	-24.3379
2269.14	-38.0205
2271.56	-31.6621
2273.99	-29.7039
2276.41	-26.5244
2278.83	-27.4053
2281.26	-14.5129
2283.67	-34.9263
2286.1	-26.4849
2288.52	-14.9343
2290.93	-11.6433
2293.35	-12.4768
2295.77	-29.5879
2298.18	-21.2012
2300.6	-28.2371
2303.01	-33.9529
2305.43	-35.8035
2307.84	-14.3198
2310.25	-24.989
2312.66	-6.61768
2315.07	-29.7798
2317.48	-9.99658
2319.89	-21.176
2322.29	-22.2891
2324.7	-16.8201
2327.11	-19.198
2329.51	-27.6738
2331.91	-21.0505
2334.32	-17.6689
2336.72	-32.74
2339.12	-29.3752
2341.52	-32.2107
2343.92	-25.3318
2346.32	-27.7341
2348.72	-23.113
2351.11	-12.1611
2353.51	-19.1008
2355.91	-11.7559
2358.3	-27.7729
2360.69	-26.6992
2363.09	-10.8916
2365.48	-14.6372
2367.87	-8.44775
2370.26	-5.45752
2372.65	-16.0757
2375.04	-19.605
2377.42	-12.6116
2379.81	-12.1189
2382.2	-7.76904
2384.58	-1.68945
2386.97	-1.74292
2389.35	-8.15112
2391.73	-8.96143
2394.11	0.652588
2396.5	-29.0718
2398.87	-3.70313
2401.25	-12.2419
2403.63	-12.6797
2406.01	2.479
2408.39	-4.35718
2410.76	-4.1792
2413.14	-2.32153
2415.51	-4.5957
2417.89	-1.74121
2420.26	-12.2847
2422.63	-10.1707
2425	-23.5793
2427.37	1.25244
2429.74	3.14844
2432.11	-5.17041
2434.47	6.00391
2436.84	-12.5239
2439.21	-4.81689
2441.57	-4.80347
2443.93	-12.0764
2446.3	-29.1394
2448.66	-17.958
2451.02	1.17847
2453.38	-19.7808
2455.74	-7.1123
2458.1	-3.27026
2460.46	-15.7476
2462.82	0.581055
2465.17	-3.44849
2467.53	-1.79736
2469.88	-8.96338
2472.24	-11.9851
2474.59	-6.83789
2476.94	-3.16406
2479.29	-16.7686
2481.64	12.4075
2483.99	-8.24658
2486.34	0.809326
2488.69	12.1155
2491.04	-7.2334
2493.38	3.92407
2495.73	26.8503
2498.08	1.10376
2500.42	5.91895
2502.76	25.8552
2505.11	18.4609
2507.45	11.9138
2509.79	0.71167
2512.13	20.2288
2514.47	13.8181
2516.8	3.75903
2519.14	27.7021
2521.48	15.9766
2523.81	28.7922
2526.15	26.9834
2528.48	4.72778
2530.81	14.1267
2533.15	6.34644
2535.48	12.8779
2537.81	5.60303
2540.14	17.2168
2542.47	3.49365
2544.8	-1.36719
2547.12	2.01709
2549.45	12.2251
2551.77	9.31909
2554.1	2.68408
2556.42	23.385
2558.75	-0.902344
2561.07	0.0610352
2563.39	17.0991
2565.71	8.37695
2568.03	10.948
2570.35	4.74951
2572.67	16.5112
2574.99	5.63062
2577.3	8.67285
2579.62	21.1719
2581.93	13.3127
2584.25	15.042
2586.56	31.3076
2588.87	27.4307
2591.19	26.6035
2593.5	27.6355
2595.81	21.1445
2598.11	40.9771
2600.42	25.2029
2602.73	8.39819
2605.04	39.4668
2607.34	44.8623
2609.65	31.0432
2611.95	30.4448
2614.26	50.6719
2616.56	27.3601
2618.86	29.9309
2621.16	47.0874
2623.46	34.9026
2625.76	-3.81201
2628.06	26.1687
2630.36	19.8052
2632.65	29.7683
2634.95	17.4561
2637.25	4.06079
2639.54	4.48511
2641.83	8.97852
2644.13	-11.4907
2646.42	-12.6353
2648.71	-10.6465
2651	-19.8181
2653.29	-18.4973
2655.58	7.40381
2657.87	-7.25464
2660.15	-2.00415
2662.44	6.44824
2664.72	3.20581
2667.01	2.73193
2669.29	22.9426
2671.58	9.18726
2673.86	42.5586
2676.14	37.0874
2678.42	34.5767
2680.7	40.6587
2682.98	49.5967
2685.26	41.3945
2687.54	36.7708
2689.81	27.3872
2692.09	10.3921
2694.36	18.3999
2696.64	31.2739
2698.91	14.9146
2701.18	39.9585
2703.45	18.9778
2705.72	26.1165
2707.99	35.1096
2710.26	36.5933
2712.53	25.9307
2714.8	47.4001
2717.07	50.6724
2719.33	41.0332
2721.6	49.269
2723.86	55.6809
2726.13	56.3201
2728.39	55.125
2730.65	46.804
2732.91	59.9771
2735.17	58.7522
2737.43	63.1167
2739.69	53.0593
2741.95	72.1772
2744.21	51.4612
2746.46	73.5269
2748.72	56.4092
2750.97	54.3743
2753.23	51.6648
2755.48	42.8691
2757.73	56.2
2759.98	51.5105
2762.24	49.7703
2764.49	48.8083
2766.73	57.3125
2768.98	40.1873
2771.23	48.5193
2773.48	42.0911
2775.72	50.7444
2777.97	45.8938
2780.21	41.1978
2782.46	43.5349
2784.7	29.7051
2786.94	28.863
2789.18	24.5073
2791.42	11.1272
2793.66	13.637
2795.9	-1.56421
2798.14	6.65137
2800.38	2.30273
2802.61	-14.6501
2804.85	3.87134
2807.08	-5.72852
2809.32	-3.36816
2811.55	-5.66895
2813.78	-2.23804
2816.02	-1.47119
2818.25	7.51123
2820.48	-0.645752
2822.71	-3.54077
2824.94	-3.46509
2827.16	-3.77002
2829.39	-3.44141
2831.61	-4.03613
2833.84	-2.43628
2836.06	12.6531
2838.29	19.7351
2840.51	44.0803
2842.73	67.4043
2844.96	95.2236
2847.18	122.624
2849.4	156.935
2851.61	188.786
2853.83	229.976
2856.05	265.196
2858.27	314.194
2860.48	368.896
2862.7	420.3
2864.91	478.293
2867.13	515.081
2869.34	558.181
2871.55	601.722
2873.76	627.298
2875.97	645.175
2878.18	670.388
2880.39	688.739
2882.6	709.881
2884.81	724.543
2887.01	763.275
2889.22	816.321
2891.42	883.04
2893.63	948.328
2895.83	999.584
2898.03	1031.99
2900.23	1089.5
2902.43	1101.46
2904.63	1159.36
2906.83	1194.26
2909.03	1227.82
2911.09	1309.77
2913.31	1367.44
2915.54	1462.39
2917.76	1540.58
2919.99	1606.47
2922.21	1679.3
2924.43	1701.78
2926.65	1695.42
2928.87	1718.62
2931.09	1711.31
2933.31	1703.86
2935.53	1696.8
2937.75	1652.37
2939.97	1598.78
2942.18	1558.04
2944.4	1495.94
2946.61	1414.43
2948.83	1355.97
2951.04	1319.53
2953.25	1262.81
2955.47	1244.29
2957.68	1215.37
2959.89	1186.09
2962.1	1140.61
2964.31	1078.27
2966.52	1000.61
2968.73	917.249
2970.93	836.342
2973.14	739.843
2975.35	666.116
2977.55	592.719
2979.76	526.615
2981.96	488.094
2984.16	442.444
2986.37	407.66
2988.57	382.189
2990.77	325.786
2992.97	303.452
2995.17	275.112
2997.37	263.408
2999.57	234.319
3001.77	219.284
3003.96	182.257
3006.16	140.333
3008.36	108.221
3010.55	96.3308
3012.75	67.9807
3014.94	50.6411
3017.13	31.0137
3019.32	27.5249
3021.52	24.0598
3023.71	8.90576
3025.9	-12.298
3028.09	-8.18542
3030.28	-12.2499
3032.46	-18.1118
3034.65	-28.3488
3036.84	-35.2531
3039.02	-32.7113
3041.21	-16.436
3043.39	-11.7158
3045.58	-23.7322
3047.76	-7.11462
3049.94	-6.68518
3052.13	5.67188
3054.31	23.8872
3056.49	45.0587
3058.67	75.9419
3060.85	111.402
3063.03	183.605
3065.2	224.047
3067.38	260.272
3069.56	289.849
3071.73	330.836
3073.91	377.692
3076.08	438.625
3078.26	477.338
3080.43	505.878
3082.6	457.318
3084.77	375.315
3086.95	292.109
3089.12	229.884
3091.29	165.2
3093.46	104.335
3095.62	76.658
3097.79	62.2614
3099.96	38.2222
3102.12	16.9518
3104.29	19.2577
3106.45	-0.957764
3108.62	1.33191
3110.78	-10.6246
3112.95	-6.67407
3115.11	-14.2012
3117.27	-21.4072
3119.43	-24.7609
3121.59	-17.9166
3123.75	-26.174
3125.91	-31.415
3128.07	-13.842
3130.22	-4.44751
3132.38	-16.032
3134.54	-25.922
3136.69	-10.0889
3138.85	-17.3724
3141	4.36548
3143.16	-8.0658
3145.31	-0.705444
3147.46	-10.5675
3149.61	1.88306
3151.76	5.62012
3153.91	-7.11841
3156.06	10.5216
3158.21	4.66797
3160.36	-1.55542
3162.51	-17.2606
3164.65	2.22949
3166.8	-22.7776
3168.94	2.57104
3171.09	-1.45715
3173.23	0.341553
3175.38	-13.4269
3177.52	-8.18225
3179.66	8.92188
3181.8	-8.31519
3183.94	-2.0752
3186.08	7.94202
3188.22	0.384766
3190.36	-5.50952
3192.5	1.6488
3194.63	-2.72034
3196.77	-5.04346
3198.91	2.63452
3201.04	-9.96021
3203.18	-2.69885
3205.31	-0.460938
3207.44	-2.07947
3209.58	12.1937
3211.71	6.00354
3213.84	20.71
3215.97	16.0155
3218.1	16.4451
3220.23	35.9604
3222.36	32.7506
3224.49	22.4928
3226.61	21.0177
3228.74	15.642
3230.87	7.57788
3232.99	13.8119
3235.11	4.1355
3237.24	7.7251
3239.36	-5.49121
3241.48	3.91638
3243.61	-11.9521
3245.73	-6.09607
3247.85	1.94263
3249.97	6.3175
3252.09	-8.03101
3254.2	-3.35071
3256.32	-8.62061
3258.44	-9.61462
3260.56	-0.171021
3262.67	-4.32788
3264.79	-14.4877
3266.9	-5.82471
3269.02	-16.4152
3271.13	-8.12439
3273.24	-10.4714
3275.35	-6.01135
3277.46	-6.93542
3279.57	-15.5795
3281.68	0.386475
3283.79	1.92969
3285.9	-19.9086
3288.01	-0.307617
3290.12	-20.2281
3292.22	3.69507
3294.33	-6.15491
3296.43	-8.84619
3298.54	-7.48267
3300.64	-2.6488
3302.75	-5.10571
3304.85	-10.5341
3306.95	-9.29932
3309.05	-3.48352
3311.15	1.78113
3313.25	-3.35767
3315.35	-14.7809
3317.45	-5.64832
3319.55	-6.24731
3321.65	-11.1709
3323.74	1.67932
3325.84	9.95984
3327.93	12.277
3330.03	7.85681
3332.12	9.01758
3334.21	18.2697
3336.31	9.71716
3338.4	-2.29712
3340.49	-12.0793
3342.58	-15.0543
3344.67	-22.8002
3346.76	-8.17676
3348.85	-30.8263
3350.94	-19.2334
3353.02	-17.871
3355.11	-5.65027
3357.2	2.55798
3359.28	9.56921
3361.37	9.42322
3363.45	8.51648
3365.53	5.04333
3367.62	13.4009
3369.7	10.1914
3371.78	11.3597
3373.86	12.6836
3375.94	6.13684
3378.02	5.0498
3380.1	11.4454
3382.18	4.91711
3384.25	-1.9729
3386.33	10.7192
3388.41	-1.47644
3390.48	-0.294922
3392.56	6.56799
3394.63	8.30103
3396.71	1.87219
3398.78	-6.97095
3400.85	7.6322
3402.92	2.10242
3404.99	1.27637
3407.06	-2.48315
3409.13	-1.22314
3411.2	-3.78601
3413.27	-6.28748
3415.34	0.191895
3417.4	9.33118
3419.47	14.7443
3421.54	16.4382
3423.6	-1.97681
3425.67	-8.4884
3427.73	4.01587
3429.79	2.70129
3431.86	8.45557
3433.92	11.2177
3435.98	8.30579
3438.04	-2.02625
3440.1	-4.17981
3442.16	-5.38208
3444.22	-0.0928955
3446.27	0.87915
3448.33	9.44116
3450.39	4.81201
3452.44	-4.86169
3454.5	-9.56592
3456.55	-0.289185
3458.61	1.30725
3460.66	13.652
3462.71	7.17896
3464.77	9.68787
3466.82	10.8263
3468.87	-1.76477
3470.92	2.03455
3472.97	1.12769
3475.02	7.1571
3477.06	3.1676
3479.11	4.35217
3481.16	-3.15112
3483.2	-3.66418
3485.25	7.28223
3487.3	-11.2664
3489.34	7.34485
3491.38	4.82227
3493.43	-1.86292
3495.47	-1.83655
3497.51	-0.507324
3499.55	-1.25952
