200.057	-6.93542
203.219	-9.34372
206.378	-10.1812
209.539	8.38265
212.696	0.274018
215.854	0.211637
219.009	14.6774
222.165	24.2224
225.318	17.8652
228.472	37.3893
231.622	38.6932
234.774	29.6895
237.923	31.9723
241.07	42.0611
244.217	45.0321
247.364	31.7174
250.508	4.53353
253.652	6.47542
256.794	3.62657
259.937	-12.8226
263.077	-12.7306
266.216	-14.9182
269.354	-1.09243
272.491	22.8672
275.626	20.4152
278.761	8.24446
281.895	24.1399
285.027	35.4629
288.159	40.1448
291.287	55.5357
294.417	58.8532
297.545	61.4605
300.672	49.0998
303.799	56.0942
306.922	35.7604
310.046	35.6928
313.169	49.771
316.289	35.2583
319.41	30.6291
322.528	25.5185
325.647	31.8433
328.764	20.1371
331.879	27.4713
334.993	37.5669
338.107	44.9159
341.219	52.6658
344.332	75.1196
347.441	82.8197
350.549	106.503
353.659	107.543
356.765	127.967
359.87	116.138
362.975	98.7144
366.078	80.494
369.18	62.9412
372.281	64.0282
375.383	53.0396
378.482	49.5344
381.58	29.9389
384.675	15.8514
387.771	9.23623
390.865	-15.0979
393.959	-1.77436
397.052	-7.35104
400.144	4.50024
403.234	0.332714
406.322	29.0688
409.411	44.5442
412.498	54.8104
415.583	56.5008
418.668	72.8895
421.75	80.5591
424.834	84.254
427.916	78.5692
430.996	67.5968
434.074	64.2911
437.153	79.5463
440.229	56.9397
443.306	62.9142
446.381	71.1798
449.454	66.1069
452.526	82.7284
455.599	85.3094
458.669	77.2226
461.738	40.6093
464.806	48.6358
467.873	29.9455
470.939	51.18
474.004	45.0683
477.067	52.6477
480.13	52.0872
483.192	54.9503
486.253	49.5772
489.313	69.5453
492.369	65.1696
495.427	62.8058
498.484	64.4601
501.54	45.5486
504.592	44.5503
507.646	42.0404
510.698	43.3436
513.748	39.4251
516.799	41.9313
519.846	36.3221
522.895	18.2408
525.94	10.7802
528.985	14.6654
532.03	25.5549
535.073	17.7087
538.114	7.22067
541.157	-12.6358
544.196	-14.2011
547.234	-1.30829
550.272	13.7973
553.308	13.3498
556.344	5.85505
559.378	32.8542
562.411	9.86051
565.444	52.3455
568.475	45.4162
571.505	60.1889
574.535	73.5732
577.563	84.0149
580.588	85.4078
583.615	75.5821
586.64	87.8051
589.662	72.8252
592.686	59.9143
595.708	63.5437
598.727	65.6799
601.747	55.0125
604.765	52.4338
607.783	36.1319
610.798	15.6341
613.813	15.4263
616.828	-6.37512
619.84	5.37967
622.851	-9.42201
625.862	-11.6578
628.873	0.278651
631.881	-1.23252
634.889	-6.29794
637.895	5.36279
640.9	10.3173
643.904	15.7215
646.908	16.9028
649.91	27.7656
652.909	43.7963
655.91	42.1817
658.909	48.0979
661.907	35.0993
664.903	59.1779
667.899	50.6062
670.895	44.3652
673.887	42.2571
676.88	38.7966
679.871	49.1527
682.862	35.4669
685.851	38.5066
688.84	33.8908
691.827	19.4026
694.812	26.6286
697.799	8.18063
700.782	24.2005
703.765	14.7549
706.746	0.9447
709.727	-13.5688
712.706	-5.92716
715.685	-13.5546
718.663	-2.56669
721.639	15.7391
724.615	5.97754
727.59	-4.9504
730.563	4.50918
733.536	-5.22087
736.506	19.4221
739.477	10.5455
742.446	30.8081
745.413	23.5515
748.381	41.2346
751.346	29.382
754.312	15.3472
757.275	23.3137
760.239	35.91
763.2	27.1999
766.16	10.7965
769.121	27.6988
772.079	19.7056
775.036	-3.10389
777.992	4.76744
780.947	-1.89618
783.901	-4.2223
786.855	9.1194
789.807	-0.434566
792.758	-13.8794
795.709	-12.3637
798.658	5.50222
801.606	-20.0665
804.554	-11.0125
807.498	-8.00113
810.444	15.1032
813.388	0.473298
816.33	0.222046
819.273	14.3673
822.212	24.2379
825.153	24.5238
828.091	14.8548
831.027	25.8092
833.965	23.3672
836.9	39.8542
839.834	59.5302
842.769	47.9545
845.701	47.2966
848.632	68.4316
851.562	77.2457
854.491	60.3118
857.419	64.773
860.347	69.8574
863.273	57.8864
866.196	53.5277
869.121	39.2411
872.044	22.0205
874.966	45.9646
877.886	26.3324
880.807	36.429
883.726	43.9055
886.643	41.0114
889.561	66.9177
892.475	55.5997
895.389	82.3548
898.304	94.792
901.216	81.2638
904.127	88.0886
907.037	71.2345
909.948	78.0661
912.856	53.5655
915.764	47.9909
918.67	51.0664
921.575	60.1819
924.479	46.0851
927.381	55.3146
930.284	61.2212
933.185	57.8458
936.086	52.3604
938.983	35.4551
941.882	55.5768
944.78	43.0709
947.675	28.6829
950.571	33.5736
953.464	34.9955
956.358	31.9833
959.249	37.5627
962.139	24.9879
965.028	43.2527
967.919	23.4898
970.806	44.8678
973.693	25.6468
976.578	47.8481
979.463	39.802
982.346	32.081
985.229	32.7674
988.111	30.427
990.992	35.5145
993.87	49.8048
996.749	65.5292
999.627	61.5798
1002.5	80.0825
1005.38	74.9937
1008.25	81.6262
1011.13	92.1401
1014	88.6408
1016.87	78.1254
1019.74	93.9652
1022.61	80.724
1025.48	107.439
1028.35	115.057
1031.21	94.1729
1034.08	114.64
1036.94	122.45
1039.8	144.459
1042.67	125.988
1045.53	151.575
1048.39	143.385
1051.25	159.237
1054.1	168.196
1056.96	145.928
1059.82	175.856
1062.67	161.656
1065.53	154.232
1068.38	155.658
1071.23	162.154
1074.08	149.906
1076.93	149.251
1079.78	171.298
1082.63	174.832
1085.48	207.788
1088.32	242.845
1091.17	266.488
1094.01	301.817
1096.85	322.166
1099.7	313.828
1102.54	292.144
1105.38	248.79
1108.21	259.331
1111.05	239.171
1113.89	230.085
1116.72	232.139
1119.56	241.262
1122.39	227.874
1125.23	231.483
1128.06	216.154
1130.89	206.131
1133.72	173.654
1136.55	165.933
1139.37	178.798
1142.2	142.52
1145.03	156.051
1147.85	164.016
1150.67	142.048
1153.5	130.184
1156.32	117.456
1159.14	90.5891
1161.96	80.1015
1164.78	78.483
1167.6	60.826
1170.41	35.1231
1173.23	45.5756
1176.04	32.6558
1178.86	22.5905
1181.67	24.2588
1184.48	3.6642
1187.29	15.228
1190.1	3.69088
1192.91	-11.2253
1195.72	14.3863
1198.52	13.3152
1201.33	1.20542
1204.13	-0.528537
1206.94	18.4182
1209.74	6.94345
1212.54	-4.10048
1215.34	10.0301
1218.14	21.9289
1220.94	13.3198
1223.74	16.0993
1226.54	16.4395
1229.33	4.2248
1232.13	36.4771
1234.92	29.0148
1237.71	59.7743
1240.5	39.5776
1243.3	54.1307
1246.09	58.3066
1248.87	70.7446
1251.66	50.3177
1254.45	74.9597
1257.23	91.0509
1260.02	94.393
1262.8	106.145
1265.59	100.413
1268.37	94.2947
1271.15	106.823
1273.93	99.2375
1276.71	72.2608
1279.48	85.7014
1282.26	72.2773
1285.04	58.3068
1287.81	57.49
1290.58	39.0357
1293.36	60.0131
1296.13	49.9478
1298.9	70.1305
1301.67	69.8797
1304.44	60.3171
1307.21	62.0036
1309.98	56.708
1312.74	71.1533
1315.51	92.6676
1318.27	73.4401
1321.03	81.777
1323.8	85.7967
1326.56	95.2871
1329.32	79.2064
1332.08	103.601
1334.83	105.842
1337.59	105
1340.35	130.702
1343.1	119.554
1345.86	114.755
1348.61	105.518
1351.36	117.816
1354.11	118.055
1356.86	109.305
1359.61	129.846
1362.36	143.13
1365.11	144.021
1367.86	165.186
1370.6	163.928
1373.35	165.588
1376.09	168.338
1378.83	160.17
1381.57	150.42
1384.31	153.867
1387.05	126.702
1389.79	114.768
1392.53	119.716
1395.27	110.531
1398	82.7215
1400.74	99.4275
1403.47	91.1333
1406.2	88.9409
1408.94	87.2048
1411.67	101.415
1414.4	95.4618
1417.12	102.928
1419.85	100.001
1422.58	87.3405
1425.31	80.4964
1428.03	97.2702
1430.75	85.6268
1433.48	60.6196
1436.2	70.2339
1438.92	59.1178
1441.64	54.801
1444.36	73.6975
1447.08	73.5792
1449.79	85.877
1452.51	85.0297
1455.23	109.288
1457.94	121.802
1460.66	117.141
1463.37	121.128
1466.08	128.662
1468.79	125.102
1471.5	117.168
1474.21	105.242
1476.92	72.57
1479.62	40.6312
1482.33	57.133
1485.03	31.0549
1487.74	25.8017
1490.44	16.2217
1493.14	8.75096
1495.84	5.69813
1498.54	14.5123
1501.24	-7.68098
1503.94	12.2419
1506.63	11.462
1509.33	-15.7424
1512.03	-10.0614
1514.72	-17.7195
1517.41	-14.1565
1520.11	-34.0384
1522.8	-14.2231
1525.49	-4.93777
1528.18	-9.07624
1530.87	-13.8234
1533.55	-13.1913
1536.24	-0.414026
1538.93	-9.47023
1541.61	12.6886
1544.29	-11.4133
1546.98	-4.02126
1549.66	-1.30921
1552.34	-6.6346
1555.02	7.4746
1557.7	1.54836
1560.38	1.35883
1563.05	-5.32826
1565.73	14.7728
1568.4	11.4292
1571.08	3.52024
1573.75	25.4898
1576.42	3.05599
1579.09	14.8342
1581.77	25.9463
1584.43	25.2582
1587.1	24.1104
1589.77	4.67185
1592.44	26.282
1595.1	32.4467
1597.77	43.9675
1600.43	17.2966
1603.09	15.2876
1605.76	34.1764
1608.42	18.4601
1611.08	41.9894
1613.74	44.2438
1616.39	38.5897
1619.05	34.8515
1621.71	35.0461
1624.36	19.3634
1627.02	12.8389
1629.67	-6.20572
1632.32	1.4797
1634.97	3.76407
1637.62	0.376735
1640.27	8.27325
1642.92	10.0547
1645.57	-2.23817
1648.22	3.61196
1650.86	16.1046
1653.51	8.71724
1656.15	1.94886
1658.79	12.2503
1661.44	6.72872
1664.08	16.9244
1666.72	23.447
1669.36	5.76092
1671.99	4.89111
1674.63	14.1581
1677.27	19.9078
1679.9	6.6726
1682.54	21.2219
1685.17	-8.98596
1687.81	6.88214
1690.44	20.5554
1693.07	-4.67181
1695.7	3.93468
1698.33	8.6055
1700.96	-3.13414
1703.58	7.43441
1706.21	-3.93712
1708.83	5.22323
1711.46	0.961952
1714.08	-17.1313
1716.7	7.65827
1719.32	9.18784
1721.94	7.41725
1724.56	17.5178
1727.18	9.40613
1729.8	29.8513
1732.42	34.6319
1735.03	24.5221
1737.65	-5.58144
1740.26	27.8588
1742.88	13.4257
1745.49	12.6414
1748.1	-4.51457
1750.71	9.32406
1753.32	9.29177
1755.93	16.1934
1758.53	5.8086
1761.14	14.5493
1763.75	19.9845
1766.35	9.68474
1768.96	3.61788
1771.56	1.6206
1774.16	37.9287
1776.76	28.1443
1779.36	24.5084
1781.96	11.349
1784.56	21.0343
1787.16	24.6876
1789.75	17.17
1792.35	28.2594
1794.94	35.2438
1797.54	19.938
1800.13	14.4528
1802.72	34.7952
1805.31	34.7072
1807.9	18.062
1810.49	30.8847
1813.08	24.2226
1815.67	30.4664
1818.25	24.0258
1820.84	8.09356
1823.42	0.1561
1826.01	35.125
1828.59	6.18928
1831.17	0.332204
1833.75	8.14921
1836.33	7.76248
1838.91	12.5577
1841.49	-0.6696
1844.07	-6.56342
1846.64	6.85055
1849.22	9.81845
1851.79	3.5092
1854.36	-1.42369
1856.94	1.52535
1859.51	-10.0422
1862.08	-14.4298
1864.65	-14.5227
1867.22	-56.9313
1869.79	-53.8157
1872.35	-34.0801
1874.92	-42.3165
1877.49	-20.6425
1880.05	15.079
1882.61	-1.30031
1885.18	18.3653
1887.74	29.6304
1890.3	22.523
1892.86	28.5219
1895.42	52.3064
1897.97	50.1805
1900.53	36.1387
1903.09	33.3532
1905.64	50.6964
1908.2	56.6215
1910.75	47.0984
1913.3	40.1459
1915.86	55.4414
1918.41	41.7614
1920.96	33.4127
1923.5	42.2382
1926.05	49.2285
1928.6	31.8228
1931.15	47.2856
1933.69	52.0022
1936.24	37.0756
1938.78	41.4983
1941.32	36.7364
1943.86	38.7699
1946.4	29.4434
1948.94	37.1739
1951.48	36.0517
1954.02	38.7873
1956.56	31.8578
1959.09	42.0756
1961.63	24.4695
1964.16	30.8882
1966.7	26.8301
1969.23	23.8393
1971.76	25.6722
1974.29	34.4605
1976.82	11.5861
1979.35	32.4496
1981.88	16.9493
1984.41	16.9831
1986.93	22.0559
1989.46	41.7638
1991.98	22.297
1994.51	23.2792
1997.03	30.8902
1999.55	43.5089
2002.07	42.1846
2004.59	48.0855
2007.11	32.9123
2009.63	37.7403
2012.15	51.4989
2014.66	53.71
2017.18	32.7872
2019.69	50.785
2022.21	56.3447
2024.72	47.7678
2027.23	60.9014
2029.75	78.111
2032.26	75.5786
2034.77	88.8181
2037.27	79.2028
2039.78	73.8043
2042.29	63.5776
2044.79	66.3013
2047.3	89.5656
2049.8	78.4634
2052.31	78.456
2054.81	58.2308
2057.31	69.866
2059.81	69.8416
2062.31	73.1314
2064.81	81.1
2067.31	65.1853
2069.8	65.6829
2072.3	52.5484
2074.79	62.8537
2077.29	73.1811
2079.78	87.3003
2082.27	70.9582
2084.77	67.9198
2087.26	27.8622
2089.75	70.5515
2092.24	64.2403
2094.72	37.4092
2097.21	57.776
2099.7	60.5897
2102.18	49.7034
2104.67	56.6507
2107.15	41.9773
2109.63	43.1019
2112.11	56.2232
2114.6	62.5892
2117.08	47.9823
2119.56	60.0183
2122.03	42.57
2124.51	57.2514
2126.99	65.9183
2129.46	67.7705
2131.94	62.2174
2134.41	63.6571
2136.89	76.6975
2139.36	50.2324
2141.83	75.2714
2144.3	62.9049
2146.77	76.8574
2149.24	75.4014
2151.71	65.2629
2154.17	85.0277
2156.64	96.3642
2159.1	97.6812
2161.57	67.8512
2164.03	88.5591
2166.49	81.5927
2168.96	88.0285
2171.42	75.8685
2173.88	84.8725
2176.34	100.274
2178.79	103.313
2181.25	100.28
2183.71	92.7339
2186.16	93.0275
2188.62	97.8968
2191.07	100.592
2193.53	86.882
2195.98	109.425
2198.43	78.5029
2200.88	92.3855
2203.33	89.9265
2205.78	97.297
2208.23	98.9112
2210.67	90.4359
2213.12	90.9543
2215.56	80.3843
2218.01	85.8409
2220.45	70.5924
2222.89	88.4302
2225.33	89.0847
2227.78	69.1293
2230.22	78.9577
2232.66	89.9282
2235.09	85.6477
2237.53	87.7766
2239.97	98.8655
2242.4	96.3907
2244.84	101.746
2247.27	89.9183
2249.7	103.498
2252.14	80.278
2254.57	66.4786
2257	100.694
2259.43	75.7842
2261.86	62.722
2264.28	86.0684
2266.71	76.9762
2269.14	47.5578
2271.56	75.8299
2273.99	63.2263
2276.41	65.3804
2278.83	67.2601
2281.26	71.0044
2283.67	72.4364
2286.1	53.0662
2288.52	72.6315
2290.93	62.209
2293.35	62.2025
2295.77	57.2958
2298.18	72.2328
2300.6	58.5894
2303.01	64.3432
2305.43	64.5757
2307.84	60.6552
2310.25	72.7362
2312.66	64.354
2315.07	70.1641
2317.48	53.6595
2319.89	70.9054
2322.29	61.9716
2324.7	65.7926
2327.11	72.5452
2329.51	59.8775
2331.91	70.5083
2334.32	62.3094
2336.72	79.2773
2339.12	68.1698
2341.52	55.3145
2343.92	69.816
2346.32	61.4129
2348.72	62.673
2351.11	57.9579
2353.51	68.1947
2355.91	60.9619
2358.3	65.8295
2360.69	66.2836
2363.09	55.6626
2365.48	58.3689
2367.87	58.3987
2370.26	61.2007
2372.65	69.6355
2375.04	76.9996
2377.42	74.2527
2379.81	67.8944
2382.2	63.4681
2384.58	67.9494
2386.97	63.3334
2389.35	68.1135
2391.73	80.1471
2394.11	61.3582
2396.5	76.9338
2398.87	73.3001
2401.25	62.5431
2403.63	40.3548
2406.01	63.6761
2408.39	70.8685
2410.76	72.2428
2413.14	68.4783
2415.51	80.2433
2417.89	65.5374
2420.26	72.1475
2422.63	57.8648
2425	37.134
2427.37	57.5247
2429.74	61.693
2432.11	69.9663
2434.47	56.2008
2436.84	67.3379
2439.21	55.8996
2441.57	49.6571
2443.93	54.052
2446.3	55.4635
2448.66	51.7602
2451.02	38.3577
2453.38	57.5976
2455.74	36.0741
2458.1	47.9715
2460.46	44.2646
2462.82	43.7104
2465.17	44.1204
2467.53	23.5052
2469.88	42.0894
2472.24	45.5861
2474.59	53.846
2476.94	49.8236
2479.29	46.3876
2481.64	50.4284
2483.99	46.2835
2486.34	43.2077
2488.69	50.9804
2491.04	48.1899
2493.38	49.6762
2495.73	21.0332
2498.08	54.2794
2500.42	25.6004
2502.76	36.8369
2505.11	52.1131
2507.45	34.9834
2509.79	12.9988
2512.13	43.6573
2514.47	39.0045
2516.8	32.9931
2519.14	35.2186
2521.48	46.895
2523.81	46.0197
2526.15	26.6234
2528.48	44.2082
2530.81	31.8784
2533.15	32.6778
2535.48	31.4085
2537.81	15.6225
2540.14	44.9279
2542.47	26.1207
2544.8	35.2558
2547.12	26.6225
2549.45	14.9456
2551.77	25.0873
2554.1	30.7756
2556.42	27.2477
2558.75	33.171
2561.07	11.1289
2563.39	28.3976
2565.71	17.5016
2568.03	12.0032
2570.35	28.8955
2572.67	8.09765
2574.99	16.2743
2577.3	4.46397
2579.62	14.4301
2581.93	20.3035
2584.25	6.39727
2586.56	13.706
2588.87	3.88187
2591.19	19.2477
2593.5	0.834475
2595.81	6.55498
2598.11	13.2053
2600.42	11.8944
2602.73	10.6815
2605.04	8.27626
2607.34	2.97463
2609.65	-5.25572
2611.95	16.0746
2614.26	24.6731
2616.56	16.3789
2618.86	39.9268
2621.16	7.08315
2623.46	7.78295
2625.76	13.4097
2628.06	7.80618
2630.36	26.5318
2632.65	-13.3006
2634.95	15.4879
2637.25	-1.75118
2639.54	-13.8833
2641.83	-23.2721
2644.13	5.50066
2646.42	16.7324
2648.71	8.19465
2651	-7.55798
2653.29	-12.8207
2655.58	6.05233
2657.87	-1.45963
2660.15	-15.7826
2662.44	-0.446827
2664.72	-11.8868
2667.01	-5.0641
2669.29	-3.67569
2671.58	0.889311
2673.86	-14.2432
2676.14	-20.0769
2678.42	-22.34
2680.7	-17.8156
2682.98	-24.8112
2685.26	8.27938
2687.54	-8.56648
2689.81	16.628
2692.09	17.4841
2694.36	35.6437
2696.64	44.497
2698.91	29.4083
2701.18	35.9972
2703.45	51.8602
2705.72	61.3995
2707.99	61.7353
2710.26	68.7471
2712.53	85.4454
2714.8	88.6654
2717.07	95.9555
2719.33	117.02
2721.6	110.682
2723.86	129.93
2726.13	130.146
2728.39	147.232
2730.65	160.14
2732.91	154.453
2735.17	160.284
2737.43	164.969
2739.69	195.442
2741.95	199.946
2744.21	178.603
2746.46	202.408
2748.72	203.189
2750.97	214.696
2753.23	200.214
2755.48	220.157
2757.73	221.158
2759.98	227.954
2762.24	234.571
2764.49	228.594
2766.73	248.506
2768.98	248.887
2771.23	253.03
2773.48	260.609
2775.72	277.598
2777.97	276.779
2780.21	296.046
2782.46	298.003
2784.7	317.232
2786.94	311.542
2789.18	317.045
2791.42	333.231
2793.66	324.789
2795.9	337.007
2798.14	352.29
2800.38	360.589
2802.61	364.558
2804.85	377.34
2807.08	405.611
2809.32	425.765
2811.55	425.813
2813.78	422.9
2816.02	447.253
2818.25	467.313
2820.48	465.924
2822.71	483.617
2824.94	483.115
2827.16	490.152
2829.39	496.916
2831.61	510.749
2833.84	520.063
2836.06	522.817
2838.29	539.07
2840.51	568.753
2842.73	587.016
2844.96	609.348
2847.18	634.778
2849.4	658.061
2851.61	682.469
2853.83	707.45
2856.05	743.353
2858.27	780.469
2860.48	812.361
2862.7	861.649
2864.91	926.828
2867.13	972.414
2869.34	1062.13
2871.55	1159.58
2873.76	1250.25
2875.97	1344.13
2878.18	1436.8
2880.39	1536.87
2882.6	1607.02
2884.81	1660.58
2887.01	1710.09
2889.22	1750.48
2891.42	1764.1
2893.63	1776.01
2895.83	1739.23
2898.03	1747.85
2900.23	1697.42
2902.43	1675.36
2904.63	1638.72
2906.83	1619.16
2909.03	1581.92
2911.09	1564.95
2913.31	1508.52
2915.54	1485.17
2917.76	1429.39
2919.99	1406.56
2922.21	1354.38
2924.43	1322.1
2926.65	1325.3
2928.87	1321.23
2931.09	1293.35
2933.31	1315
2935.53	1306.36
2937.75	1313.77
2939.97	1286.67
2942.18	1251.51
2944.4	1241.29
2946.61	1187.02
2948.83	1161.65
2951.04	1137.72
2953.25	1086.54
2955.47	1073.84
2957.68	1050.31
2959.89	1006.25
2962.1	987.923
2964.31	937.25
2966.52	921.741
2968.73	900.84
2970.93	874.832
2973.14	841.888
2975.35	824.92
2977.55	794.824
2979.76	772.037
2981.96	765.198
2984.16	733.827
2986.37	707.988
2988.57	684.181
2990.77	648.593
2992.97	608.051
2995.17	583.014
2997.37	550.799
2999.57	507.743
3001.77	486.302
3003.96	476.163
3006.16	456.695
3008.36	430.492
3010.55	383.857
3012.75	404.846
3014.94	394.483
3017.13	365.926
3019.32	364.337
3021.52	371.267
3023.71	333.837
3025.9	318.222
3028.09	326.443
3030.28	320.14
3032.46	302.976
3034.65	312.563
3036.84	304.776
3039.02	292.358
3041.21	266.927
3043.39	283.581
3045.58	277.442
3047.76	270.416
3049.94	261.105
3052.13	249.686
3054.31	262.14
3056.49	257.217
3058.67	253.243
3060.85	262.203
3063.03	253.78
3065.2	237.785
3067.38	241.6
3069.56	229.294
3071.73	243.352
3073.91	248.273
3076.08	235.356
3078.26	220.502
3080.43	249.492
3082.6	249.34
3084.77	220.172
3086.95	232.99
3089.12	218.862
3091.29	236.853
3093.46	224.943
3095.62	234.195
3097.79	202.413
3099.96	197.641
3102.12	193.766
3104.29	183.342
3106.45	196.425
3108.62	174.783
3110.78	189.716
3112.95	190.479
3115.11	165.253
3117.27	167.047
3119.43	153.576
3121.59	162.957
3123.75	177.531
3125.91	183.282
3128.07	156.083
3130.22	181.731
3132.38	145.044
3134.54	141.332
3136.69	156.152
3138.85	130.91
3141	152.802
3143.16	137.037
3145.31	144.53
3147.46	150.89
3149.61	153.479
3151.76	131.004
3153.91	124.089
3156.06	149.074
3158.21	139.472
3160.36	133.836
3162.51	134.014
3164.65	120.093
3166.8	123.849
3168.94	139.839
3171.09	109.482
3173.23	108.193
3175.38	131.252
3177.52	127.604
3179.66	114.444
3181.8	114.078
3183.94	116.311
3186.08	102.335
3188.22	107.863
3190.36	103.593
3192.5	112.854
3194.63	97.0799
3196.77	100.787
3198.91	104.062
3201.04	101.874
3203.18	93.3626
3205.31	94.131
3207.44	108.912
3209.58	99.9307
3211.71	97.2737
3213.84	78.7585
3215.97	90.2484
3218.1	87.8288
3220.23	72.5398
3222.36	91.6962
3224.49	79.4396
3226.61	73.3341
3228.74	67.8102
3230.87	79.5191
3232.99	68.6934
3235.11	66.6211
3237.24	58.611
3239.36	47.6111
3241.48	58.7407
3243.61	50.7085
3245.73	55.519
3247.85	41.9613
3249.97	27.0077
3252.09	44.3156
3254.2	29.5249
3256.32	31.9739
3258.44	30.5621
3260.56	48.7142
3262.67	39.5253
3264.79	18.5707
3266.9	27.8404
3269.02	31.2523
3271.13	22.3561
3273.24	15.9756
3275.35	20.6865
3277.46	13.2758
3279.57	-2.15343
3281.68	13.6819
3283.79	9.35597
3285.9	18.8462
3288.01	-3.44375
3290.12	15.4516
3292.22	8.33963
3294.33	4.2277
3296.43	-8.45115
3298.54	-9.3226
3300.64	-7.59052
3302.75	10.5852
3304.85	5.911
3306.95	-6.12749
3309.05	-25.8435
3311.15	-6.94841
3313.25	3.7777
3315.35	-0.498872
3317.45	-7.06897
3319.55	2.82046
3321.65	-6.51702
3323.74	1.62184
3325.84	3.55148
3327.93	10.0667
3330.03	-4.50822
3332.12	-7.29973
3334.21	18.4177
3336.31	8.78342
3338.4	-3.84024
3340.49	-4.95517
3342.58	-24.5902
3344.67	-11.1018
3346.76	6.73079
3348.85	1.72758
3350.94	6.78346
3353.02	-1.71745
3355.11	-3.66154
3357.2	-0.0789799
3359.28	5.52236
3361.37	-4.67159
3363.45	0.251215
3365.53	-8.2811
3367.62	20.9962
3369.7	-1.73434
3371.78	28.2708
3373.86	0.623557
3375.94	-5.92706
3378.02	7.10456
3380.1	12.6221
3382.18	7.12425
3384.25	9.23231
3386.33	8.26654
3388.41	8.69754
3390.48	6.66627
3392.56	6.36628
3394.63	2.59895
3396.71	11.4067
3398.78	-6.18201
3400.85	1.32089
3402.92	-18.553
3404.99	2.37095
3407.06	-5.77855
3409.13	0.919132
3411.2	-13.9911
3413.27	7.79662
3415.34	-1.69471
3417.4	-15.487
3419.47	0.559824
3421.54	-15.7647
3423.6	7.99388
3425.67	-0.767129
3427.73	-7.53993
3429.79	0.959124
3431.86	-8.77686
3433.92	7.00801
3435.98	-1.43578
3438.04	-2.68752
3440.1	6.44972
3442.16	9.16677
3444.22	20.2677
3446.27	23.7237
3448.33	37.1159
3450.39	15.5499
3452.44	15.5535
3454.5	10.8145
3456.55	15.1908
3458.61	8.9009
3460.66	10.0674
3462.71	13.0019
3464.77	12.7113
3466.82	14.576
3468.87	10.8912
3470.92	-5.74599
3472.97	-11.9521
3475.02	4.49845
3477.06	15.3674
3479.11	-14.4005
3481.16	-4.57026
3483.2	-8.11675
3485.25	-7.55815
3487.3	2.74993
3489.34	0.511022
3491.38	-3.81475
3493.43	-0.237521
3495.47	5.32873
3497.51	6.91208
3499.55	20.0528
