200.057	-16.465
203.219	-3.71185
206.378	-4.53586
209.539	18.7712
212.696	27.6719
215.854	51.0915
219.009	70.4624
222.165	85.9469
225.318	94.7905
228.472	84.8963
231.622	69.4816
234.774	67.9559
237.923	56.4293
241.07	49.7592
244.217	37.7558
247.364	38.9345
250.508	30.7996
253.652	42.718
256.794	36.2183
259.937	33.8839
263.077	54.6465
266.216	54.4182
269.354	73.032
272.491	93.9608
275.626	143.838
278.761	191.935
281.895	218.971
285.027	228.109
288.159	204.769
291.287	179.008
294.417	120.337
297.545	80.3586
300.672	57.4059
303.799	38.5952
306.922	28.7092
310.046	20.0069
313.169	14.4209
316.289	26.5848
319.41	13.4069
322.528	18.5042
325.647	17.8069
328.764	14.9744
331.879	14.7752
334.993	16.5423
338.107	27.1597
341.219	22.5031
344.332	42.965
347.441	54.0433
350.549	62.7643
353.659	62.8021
356.765	71.3668
359.87	73.3973
362.975	76.4016
366.078	73.7876
369.18	78.544
372.281	75.1276
375.383	52.1526
378.482	54.3551
381.58	34.0056
384.675	17.5875
387.771	18.8006
390.865	15.6595
393.959	20.725
397.052	15.5076
400.144	18.2004
403.234	24.5441
406.322	32.7558
409.411	32.93
412.498	43.0293
415.583	45.2909
418.668	57.5437
421.75	70.8654
424.834	99.4498
427.916	120.188
430.996	146.853
434.074	174.558
437.153	165.238
440.229	138.573
443.306	105.245
446.381	85.4695
449.454	58.238
452.526	41.9534
455.599	36.0204
458.669	26.5548
461.738	31.2451
464.806	26.8243
467.873	27.669
470.939	15.2493
474.004	9.65071
477.067	8.17584
480.13	29.3705
483.192	24.1561
486.253	17.5302
489.313	19.1279
492.369	14.4642
495.427	26.9959
498.484	35.3677
501.54	27.1878
504.592	33.231
507.646	33.8077
510.698	54.2807
513.748	35.3871
516.799	37.8756
519.846	30.036
522.895	13.9416
525.94	11.6236
528.985	1.73687
532.03	-0.132199
535.073	0.419369
538.114	1.46441
541.157	10.2098
544.196	-10.5617
547.234	5.54099
550.272	-6.62087
553.308	-8.91368
556.344	3.34889
559.378	-5.78361
562.411	0.125221
565.444	8.06039
568.475	18.2102
571.505	10.9423
574.535	8.08887
577.563	9.76413
580.588	12.509
583.615	35.9437
586.64	17.2443
589.662	36.2366
592.686	34.9871
595.708	48.9326
598.727	48.5777
601.747	51.6513
604.765	44.4481
607.783	41.1139
610.798	29.8578
613.813	14.7591
616.828	18.7604
619.84	7.75877
622.851	10.6055
625.862	1.50481
628.873	6.64715
631.881	-11.4498
634.889	7.00003
637.895	6.48238
640.9	3.39093
643.904	10.9465
646.908	12.628
649.91	13.2444
652.909	4.28079
655.91	17.5333
658.909	27.0572
661.907	11.8525
664.903	26.0194
667.899	20.4342
670.895	30.7595
673.887	34.0049
676.88	29.1527
679.871	25.6124
682.862	30.1347
685.851	15.4262
688.84	6.02569
691.827	13.1803
694.812	13.285
697.799	2.78838
700.782	-0.961054
703.765	17.8404
706.746	38.6193
709.727	80.3809
712.706	79.4979
715.685	75.385
718.663	61.461
721.639	30.9893
724.615	15.0133
727.59	0.622753
730.563	-3.28787
733.536	-7.21583
736.506	9.83974
739.477	4.36976
742.446	-0.429498
745.413	4.9897
748.381	-2.43254
751.346	-0.156365
754.312	6.83119
757.275	0.411047
760.239	-6.3536
763.2	-9.93128
766.16	1.7604
769.121	4.51895
772.079	-2.76621
775.036	-3.59216
777.992	-4.54768
780.947	-0.664865
783.901	-4.17447
786.855	-0.0141905
789.807	-7.77221
792.758	-9.44966
795.709	-3.03226
798.658	-8.89337
801.606	-2.58898
804.554	-0.310012
807.498	-6.34268
810.444	1.49732
813.388	15.529
816.33	31.996
819.273	31.2653
822.212	58.7479
825.153	72.37
828.091	86.4758
831.027	117.413
833.965	155.931
836.9	220.668
839.834	238.919
842.769	197.443
845.701	155.05
848.632	125.409
851.562	85.2632
854.491	69.4743
857.419	75.0449
860.347	73.0419
863.273	53.2135
866.196	53.0451
869.121	38.0799
872.044	44.7199
874.966	21.3421
877.886	17.3953
880.807	31.3945
883.726	29.1329
886.643	11.58
889.561	21.787
892.475	26.2667
895.389	44.9594
898.304	42.2767
901.216	40.2452
904.127	51.0946
907.037	44.1864
909.948	33.7678
912.856	42.4769
915.764	53.624
918.67	36.789
921.575	43.3484
924.479	29.9242
927.381	19.9433
930.284	35.29
933.185	47.4409
936.086	48.03
938.983	42.5334
941.882	46.6037
944.78	45.4775
947.675	53.6794
950.571	42.6014
953.464	41.0303
956.358	52.8219
959.249	44.6438
962.139	40.2346
965.028	36.4402
967.919	31.6942
970.806	23.0703
973.693	22.7494
976.578	12.6415
979.463	7.72551
982.346	23.1706
985.229	7.58006
988.111	9.50544
990.992	-0.884721
993.87	1.0057
996.749	-3.40114
999.627	-14.8847
1002.5	2.92875
1005.38	-1.45053
1008.25	-6.15037
1011.13	-0.339423
1014	2.70687
1016.87	6.89008
1019.74	2.27054
1022.61	5.11972
1025.48	5.56816
1028.35	9.30967
1031.21	13.9268
1034.08	27.4881
1036.94	32.7516
1039.8	48.942
1042.67	52.2057
1045.53	42.2511
1048.39	61.7657
1051.25	80.4241
1054.1	93.6696
1056.96	95.5166
1059.82	116.736
1062.67	103.835
1065.53	80.274
1068.38	81.3558
1071.23	59.0785
1074.08	56.8257
1076.93	72.5497
1079.78	174.622
1082.63	498.796
1085.48	825.507
1088.32	815.228
1091.17	741.137
1094.01	591.685
1096.85	324.343
1099.7	130.246
1102.54	87.9651
1105.38	60.3395
1108.21	37.777
1111.05	38.7328
1113.89	32.8947
1116.72	22.0455
1119.56	17.7395
1122.39	18.398
1125.23	37.9707
1128.06	27.1159
1130.89	44.9699
1133.72	43.5762
1136.55	50.5943
1139.37	41.9767
1142.2	50.9165
1145.03	40.8516
1147.85	33.4573
1150.67	29.4414
1153.5	14.8439
1156.32	19.9228
1159.14	15.4013
1161.96	20.2516
1164.78	14.4982
1167.6	16.1874
1170.41	13.5681
1173.23	3.59884
1176.04	-8.69473
1178.86	-0.529247
1181.67	-7.0607
1184.48	3.31316
1187.29	4.65986
1190.1	-0.199522
1192.91	6.74606
1195.72	10.989
1198.52	16.035
1201.33	12.5533
1204.13	24.5934
1206.94	15.8844
1209.74	30.2688
1212.54	46.277
1215.34	49.1548
1218.14	62.6942
1220.94	62.4813
1223.74	62.8578
1226.54	60.1056
1229.33	54.118
1232.13	46.8155
1234.92	42.1624
1237.71	41.3857
1240.5	31.0204
1243.3	50.7603
1246.09	45.0382
1248.87	36.8519
1251.66	61.8751
1254.45	58.5107
1257.23	73.3152
1260.02	90.0174
1262.8	92.3039
1265.59	92.499
1268.37	71.6813
1271.15	59.2851
1273.93	40.4952
1276.71	36.5962
1279.48	36.6163
1282.26	38.0953
1285.04	30.1208
1287.81	43.2438
1290.58	47.0913
1293.36	57.9303
1296.13	68.6446
1298.9	67.0426
1301.67	67.3251
1304.44	80.3953
1307.21	62.633
1309.98	66.0766
1312.74	59.7718
1315.51	34.3352
1318.27	32.0652
1321.03	23.1
1323.8	22.0617
1326.56	29.4995
1329.32	29.8523
1332.08	32.5963
1334.83	19.3935
1337.59	37.7642
1340.35	45.6106
1343.1	55.0871
1345.86	54.9278
1348.61	81.9688
1351.36	86.196
1354.11	94.788
1356.86	91.4114
1359.61	102.042
1362.36	105.109
1365.11	88.2242
1367.86	106.947
1370.6	86.3311
1373.35	62.814
1376.09	58.6368
1378.83	53.7268
1381.57	40.1206
1384.31	52.2527
1387.05	49.1841
1389.79	43.0609
1392.53	46.5755
1395.27	49.9494
1398	59.3214
1400.74	89.9137
1403.47	97.8204
1406.2	100.939
1408.94	88.4312
1411.67	75.1694
1414.4	64.5412
1417.12	67.7594
1419.85	82.6884
1422.58	94.5521
1425.31	91.7015
1428.03	86.6365
1430.75	99.9763
1433.48	118.094
1436.2	130.888
1438.92	129.981
1441.64	145.39
1444.36	141.238
1447.08	150.249
1449.79	133.827
1452.51	138.742
1455.23	137.303
1457.94	134
1460.66	123.525
1463.37	122.062
1466.08	95.1019
1468.79	97.3442
1471.5	77.6465
1474.21	69.6284
1476.92	59.7911
1479.62	53.3306
1482.33	37.0116
1485.03	38.4935
1487.74	26.8333
1490.44	37.5937
1493.14	22.1063
1495.84	31.5095
1498.54	20.8745
1501.24	17.7845
1503.94	23.7882
1506.63	9.05778
1509.33	3.81576
1512.03	15.1018
1514.72	6.36565
1517.41	-5.15317
1520.11	1.55263
1522.8	9.29022
1525.49	12.5549
1528.18	7.26578
1530.87	17.5107
1533.55	3.09068
1536.24	15.7967
1538.93	3.41393
1541.61	3.67819
1544.29	8.18182
1546.98	8.10423
1549.66	13.7664
1552.34	17.668
1555.02	9.63005
1557.7	9.39364
1560.38	18.6911
1563.05	27.6045
1565.73	18.3518
1568.4	16.4903
1571.08	19.8443
1573.75	24.7446
1576.42	13.4241
1579.09	15.3003
1581.77	16.138
1584.43	26.2728
1587.1	12.1519
1589.77	17.2693
1592.44	20.2636
1595.1	21.6833
1597.77	23.4674
1600.43	31.4774
1603.09	10.7095
1605.76	23.1144
1608.42	13.9061
1611.08	7.82371
1613.74	7.3539
1616.39	11.7478
1619.05	5.52217
1621.71	12.1515
1624.36	9.15381
1627.02	6.71423
1629.67	21.6285
1632.32	6.09355
1634.97	16.284
1637.62	12.8919
1640.27	25.0384
1642.92	21.4808
1645.57	12.8696
1648.22	17.2786
1650.86	23.6123
1653.51	18.9174
1656.15	26.5932
1658.79	23.9782
1661.44	8.25916
1664.08	35.223
1666.72	14.5885
1669.36	18.9607
1671.99	14.1217
1674.63	21.5807
1677.27	11.0324
1679.9	27.4814
1682.54	23.0971
1685.17	19.4686
1687.81	16.5655
1690.44	15.5019
1693.07	14.7817
1695.7	22.8432
1698.33	13.2409
1700.96	24.1962
1703.58	15.073
1706.21	19.2053
1708.83	12.4359
1711.46	21.0338
1714.08	27.465
1716.7	39.3523
1719.32	71.9537
1721.94	144.328
1724.56	197.954
1727.18	227.614
1729.8	231.065
1732.42	222.409
1735.03	180.62
1737.65	158.065
1740.26	131.854
1742.88	128.254
1745.49	97.2791
1748.1	99.7853
1750.71	93.3143
1753.32	92.5081
1755.93	49.5932
1758.53	44.4997
1761.14	48.4802
1763.75	23.1628
1766.35	29.5065
1768.96	9.40622
1771.56	19.9218
1774.16	28.2328
1776.76	28.0064
1779.36	13.4385
1781.96	23.3247
1784.56	28.6388
1787.16	13.7465
1789.75	25.8488
1792.35	21.0005
1794.94	16.987
1797.54	24.4322
1800.13	19.6958
1802.72	27.8471
1805.31	16.0171
1807.9	17.7302
1810.49	21.8454
1813.08	19.6139
1815.67	7.66371
1818.25	5.01057
1820.84	0.428104
1823.42	21.8125
1826.01	1.7462
1828.59	3.10017
1831.17	7.19771
1833.75	7.45864
1836.33	8.36253
1838.91	-1.42702
1841.49	0.0226983
1844.07	7.49287
1846.64	3.79821
1849.22	5.02482
1851.79	5.61085
1854.36	-5.37192
1856.94	4.51208
1859.51	-13.5258
1862.08	-10.6144
1864.65	-12.009
1867.22	-25.3059
1869.79	-17.9228
1872.35	-4.48281
1874.92	-13.8998
1877.49	-21.1081
1880.05	-23.7254
1882.61	-6.68542
1885.18	-0.787292
1887.74	8.46032
1890.3	14.1636
1892.86	12.1593
1895.42	1.51754
1897.97	20.3343
1900.53	2.75172
1903.09	14.5638
1905.64	13.7748
1908.2	11.01
1910.75	18.2318
1913.3	23.847
1915.86	14.2691
1918.41	21.5516
1920.96	15.4203
1923.5	15.7485
1926.05	10.4138
1928.6	7.67312
1931.15	13.9552
1933.69	17.6094
1936.24	2.3556
1938.78	5.64306
1941.32	5.15968
1943.86	0.923125
1946.4	4.89403
1948.94	1.99335
1951.48	9.13479
1954.02	10.1427
1956.56	-1.96775
1959.09	6.19455
1961.63	7.78526
1964.16	-5.76494
1966.7	-10.8804
1969.23	-7.05858
1971.76	-0.32684
1974.29	-12.3867
1976.82	-10.3314
1979.35	-16.959
1981.88	-13.5984
1984.41	-9.658
1986.93	-7.00928
1989.46	2.86916
1991.98	-6.67002
1994.51	-11.0222
1997.03	-6.74407
1999.55	-6.0765
2002.07	0.575345
2004.59	0.00168782
2007.11	2.45176
2009.63	7.71701
2012.15	1.04131
2014.66	-2.10205
2017.18	-0.537146
2019.69	9.16473
2022.21	-1.09747
2024.72	11.6001
2027.23	10.583
2029.75	6.2509
2032.26	20.8315
2034.77	10.2783
2037.27	5.48882
2039.78	15.6571
2042.29	9.80631
2044.79	5.32342
2047.3	13.9913
2049.8	23.4525
2052.31	10.496
2054.81	-0.428566
2057.31	13.5656
2059.81	15.7439
2062.31	30.6598
2064.81	4.27235
2067.31	7.1201
2069.8	-0.373844
2072.3	2.77202
2074.79	6.53066
2077.29	10.8254
2079.78	6.75776
2082.27	4.30076
2084.77	7.45091
2087.26	8.16141
2089.75	10.0788
2092.24	-0.345177
2094.72	-6.33473
2097.21	6.3277
2099.7	3.15355
2102.18	-7.6342
2104.67	-5.36965
2107.15	-6.38942
2109.63	-13.192
2112.11	1.94398
2114.6	-6.34357
2117.08	-16.4746
2119.56	-2.27558
2122.03	4.38601
2124.51	-0.152933
2126.99	4.19294
2129.46	3.53472
2131.94	-2.26517
2134.41	2.63862
2136.89	0.672758
2139.36	7.53888
2141.83	8.6208
2144.3	-8.27067
2146.77	14.379
2149.24	7.15269
2151.71	1.79334
2154.17	15.282
2156.64	8.29484
2159.1	12.6656
2161.57	-1.85916
2164.03	17.6123
2166.49	12.346
2168.96	24.0186
2171.42	13.4079
2173.88	17.3105
2176.34	8.20062
2178.79	16.869
2181.25	13.2205
2183.71	19.5575
2186.16	18.1005
2188.62	19.257
2191.07	14.6949
2193.53	18.1905
2195.98	21.013
2198.43	12.9815
2200.88	16.7764
2203.33	-8.32261
2205.78	15.6841
2208.23	20.4834
2210.67	-8.78032
2213.12	12.5521
2215.56	2.27069
2218.01	14.0644
2220.45	10.6093
2222.89	14.7838
2225.33	10.1386
2227.78	1.26806
2230.22	18.0791
2232.66	17.567
2235.09	10.8188
2237.53	7.633
2239.97	13.1965
2242.4	11.9033
2244.84	8.77791
2247.27	5.85395
2249.7	-0.601112
2252.14	-5.04878
2254.57	11.695
2257	-11.6655
2259.43	10.7432
2261.86	11.8622
2264.28	8.76962
2266.71	9.58691
2269.14	-5.25702
2271.56	9.02625
2273.99	6.17867
2276.41	22.1988
2278.83	17.0166
2281.26	9.43852
2283.67	4.24191
2286.1	2.40774
2288.52	17.5555
2290.93	15.4162
2293.35	1.33397
2295.77	-6.83444
2298.18	-4.26814
2300.6	-8.88494
2303.01	-4.96307
2305.43	7.45205
2307.84	7.23687
2310.25	8.93408
2312.66	16.3869
2315.07	12.6882
2317.48	25.5663
2319.89	3.66188
2322.29	7.95445
2324.7	5.47405
2327.11	4.15261
2329.51	4.4036
2331.91	10.5256
2334.32	21.3872
2336.72	12.8995
2339.12	16.389
2341.52	17.0322
2343.92	16.0031
2346.32	6.75631
2348.72	16.819
2351.11	13.4562
2353.51	23.4587
2355.91	12.5493
2358.3	6.77806
2360.69	15.6647
2363.09	9.97366
2365.48	5.14363
2367.87	17.5909
2370.26	24.3105
2372.65	11.815
2375.04	1.64416
2377.42	9.2596
2379.81	5.86407
2382.2	18.8206
2384.58	16.5985
2386.97	20.0574
2389.35	18.4581
2391.73	24.7309
2394.11	28.2995
2396.5	19.8851
2398.87	23.5854
2401.25	15.78
2403.63	22.108
2406.01	17.8453
2408.39	25.0548
2410.76	20.0374
2413.14	29.6537
2415.51	18.6382
2417.89	14.2979
2420.26	27.6854
2422.63	23.441
2425	29.1934
2427.37	28.9967
2429.74	33.2589
2432.11	29.0729
2434.47	28.0556
2436.84	24.2114
2439.21	34.8526
2441.57	21.2612
2443.93	28.6845
2446.3	34.15
2448.66	31.4438
2451.02	39.8376
2453.38	26.5827
2455.74	23.5242
2458.1	36.4756
2460.46	37.8063
2462.82	27.0246
2465.17	23.2237
2467.53	33.2563
2469.88	35.4666
2472.24	28.835
2474.59	25.5329
2476.94	30.9291
2479.29	29.4109
2481.64	29.1873
2483.99	31.5266
2486.34	41.0282
2488.69	24.5282
2491.04	39.6154
2493.38	37.3423
2495.73	43.1788
2498.08	37.5019
2500.42	38.1274
2502.76	51.8566
2505.11	49.7551
2507.45	43.0949
2509.79	49.8899
2512.13	41.5906
2514.47	37.5572
2516.8	43.1793
2519.14	43.0489
2521.48	36.171
2523.81	37.9705
2526.15	41.4697
2528.48	40.3083
2530.81	44.8715
2533.15	38.3198
2535.48	51.3547
2537.81	41.4192
2540.14	43.2485
2542.47	37.2519
2544.8	42.201
2547.12	42.9865
2549.45	47.9509
2551.77	38.4514
2554.1	49.3974
2556.42	53.0233
2558.75	46.5558
2561.07	61.4561
2563.39	63.8162
2565.71	59.076
2568.03	46.2795
2570.35	38.6328
2572.67	62.902
2574.99	62.9762
2577.3	57.3395
2579.62	52.4219
2581.93	68.977
2584.25	55.4749
2586.56	59.6328
2588.87	61.3119
2591.19	60.7631
2593.5	78.0142
2595.81	65.1511
2598.11	58.2495
2600.42	71.4257
2602.73	64.6426
2605.04	66.6708
2607.34	72.7702
2609.65	74.948
2611.95	68.8365
2614.26	72.9382
2616.56	74.1422
2618.86	75.5595
2621.16	63.7148
2623.46	70.6282
2625.76	78.1622
2628.06	80.8129
2630.36	76.0166
2632.65	81.5145
2634.95	78.1929
2637.25	86.7842
2639.54	85.1075
2641.83	64.564
2644.13	67.3034
2646.42	77.9801
2648.71	83.3169
2651	74.6115
2653.29	69.9384
2655.58	85.8861
2657.87	90.7387
2660.15	85.5929
2662.44	72.2279
2664.72	84.3945
2667.01	96.0093
2669.29	82.0618
2671.58	85.5551
2673.86	85.8307
2676.14	83.141
2678.42	77.6786
2680.7	76.2631
2682.98	79.8999
2685.26	81.4192
2687.54	79.8613
2689.81	85.3715
2692.09	70.8886
2694.36	62.9748
2696.64	69.3127
2698.91	55.7943
2701.18	74.2712
2703.45	71.8389
2705.72	63.7498
2707.99	65.5675
2710.26	76.003
2712.53	64.2716
2714.8	64.6527
2717.07	62.7777
2719.33	62.1745
2721.6	67.5854
2723.86	65.1354
2726.13	71.4076
2728.39	78.8444
2730.65	78.0707
2732.91	72.7632
2735.17	82.9998
2737.43	85.4257
2739.69	80.2319
2741.95	75.5437
2744.21	70.4777
2746.46	69.566
2748.72	65.0445
2750.97	61.9691
2753.23	60.0644
2755.48	58.5695
2757.73	61.3175
2759.98	54.3542
2762.24	48.3121
2764.49	40.1073
2766.73	37.1727
2768.98	40.0791
2771.23	28.7352
2773.48	34.5311
2775.72	32.8637
2777.97	28.8904
2780.21	24.0693
2782.46	29.4221
2784.7	27.4646
2786.94	19.3437
2789.18	19.6186
2791.42	20.8111
2793.66	23.2848
2795.9	16.2884
2798.14	12.785
2800.38	14.1052
2802.61	14.2393
2804.85	10.9729
2807.08	8.52378
2809.32	11.7334
2811.55	7.43577
2813.78	5.68845
2816.02	3.1112
2818.25	4.10997
2820.48	4.98935
2822.71	1.2187
2824.94	-2.41603
2827.16	-7.90561
2829.39	-0.857485
2831.61	-1.14704
2833.84	-5.64298
2836.06	-4.07976
2838.29	-3.10434
2840.51	-3.18834
2842.73	-3.73235
2844.96	1.36009
2847.18	6.49775
2849.4	12.5346
2851.61	18.4254
2853.83	14.6299
2856.05	24.4014
2858.27	38.4669
2860.48	40.709
2862.7	47.0862
2864.91	65.1144
2867.13	80.5194
2869.34	104.71
2871.55	139.927
2873.76	178.817
2875.97	195.839
2878.18	207.233
2880.39	207.882
2882.6	211.927
2884.81	217.93
2887.01	212.743
2889.22	194.798
2891.42	201.745
2893.63	206.933
2895.83	207.142
2898.03	214.299
2900.23	232.534
2902.43	245.435
2904.63	264.983
2906.83	283.39
2909.03	314.536
2911.09	335.298
2913.31	382.947
2915.54	427.797
2917.76	497.935
2919.99	572.158
2922.21	721.714
2924.43	916.658
2926.65	1222.93
2928.87	1452.56
2931.09	1577.23
2933.31	1607.51
2935.53	1572.58
2937.75	1457.89
2939.97	1318.2
2942.18	1140.6
2944.4	1002.23
2946.61	840.32
2948.83	730.015
2951.04	624.52
2953.25	581.754
2955.47	538.832
2957.68	529.277
2959.89	518.022
2962.1	510.043
2964.31	547.742
2966.52	589.671
2968.73	636.069
2970.93	656.529
2973.14	647.388
2975.35	633.981
2977.55	613.151
2979.76	561.565
2981.96	499.853
2984.16	460.382
2986.37	424.028
2988.57	397.592
2990.77	383.511
2992.97	393.723
2995.17	411.811
2997.37	425.865
2999.57	442.189
3001.77	417.239
3003.96	406.778
3006.16	359.925
3008.36	322.748
3010.55	296.305
3012.75	286.529
3014.94	231.352
3017.13	194.141
3019.32	149.823
3021.52	135.402
3023.71	90.4939
3025.9	59.7788
3028.09	55.1297
3030.28	36.5134
3032.46	36.9548
3034.65	28.4745
3036.84	25.4851
3039.02	9.33601
3041.21	22.9381
3043.39	7.25795
3045.58	10.9977
3047.76	12.711
3049.94	-1.7755
3052.13	-0.909748
3054.31	-1.24077
3056.49	-5.38712
3058.67	-1.32057
3060.85	3.67236
3063.03	-5.761
3065.2	-3.58616
3067.38	-9.74298
3069.56	7.50351
3071.73	4.81888
3073.91	2.58839
3076.08	-10.2851
3078.26	-1.74859
3080.43	-1.96183
3082.6	0.86805
3084.77	0.0525208
3086.95	6.13674
3089.12	-11.5544
3091.29	4.7925
3093.46	4.80639
3095.62	-1.65009
3097.79	-1.86444
3099.96	-1.1602
3102.12	0.0418692
3104.29	-3.62279
3106.45	-4.62803
3108.62	-2.42731
3110.78	3.76365
3112.95	3.81568
3115.11	-0.589871
3117.27	-1.22926
3119.43	-0.798696
3121.59	-3.65048
3123.75	-6.07263
3125.91	0.80885
3128.07	-6.49023
3130.22	-10.608
3132.38	1.64428
3134.54	-1.43256
3136.69	11.8429
3138.85	-1.51988
3141	4.07434
3143.16	7.63695
3145.31	2.40487
3147.46	0.749316
3149.61	1.09568
3151.76	7.33107
3153.91	9.34806
3156.06	1.55289
3158.21	6.68341
3160.36	20.4348
3162.51	4.72941
3164.65	11.2343
3166.8	10.3671
3168.94	15.8877
3171.09	18.4375
3173.23	17.7337
3175.38	14.599
3177.52	16.476
3179.66	15.0334
3181.8	13.309
3183.94	17.9375
3186.08	10.2434
3188.22	20.6462
3190.36	23.5677
3192.5	9.43637
3194.63	26.733
3196.77	20.9898
3198.91	24.887
3201.04	17.1982
3203.18	7.8169
3205.31	19.4719
3207.44	22.2834
3209.58	18.1828
3211.71	22.3284
3213.84	22.4621
3215.97	18.6819
3218.1	18.5324
3220.23	29.812
3222.36	22.7015
3224.49	18.3144
3226.61	10.7829
3228.74	18.7205
3230.87	23.1324
3232.99	28.2576
3235.11	18.8167
3237.24	20.2273
3239.36	25.623
3241.48	20.2237
3243.61	29.0187
3245.73	15.5538
3247.85	25.181
3249.97	18.6354
3252.09	21.5797
3254.2	19.7948
3256.32	20.8762
3258.44	14.5186
3260.56	21.9334
3262.67	29.0741
3264.79	18.2065
3266.9	26.4307
3269.02	15.5183
3271.13	22.1571
3273.24	22.2661
3275.35	19.2296
3277.46	17.4424
3279.57	18.0289
3281.68	20.6862
3283.79	22.9577
3285.9	21.5096
3288.01	15.933
3290.12	20.6438
3292.22	15.3626
3294.33	19.2839
3296.43	23.9512
3298.54	17.0355
3300.64	16.8882
3302.75	29.0545
3304.85	23.0346
3306.95	23.1474
3309.05	17.6691
3311.15	25.369
3313.25	8.61941
3315.35	27.5757
3317.45	14.7604
3319.55	16.0294
3321.65	30.9112
3323.74	24.1537
3325.84	22.3609
3327.93	24.5854
3330.03	19.2774
3332.12	22.6505
3334.21	22.0673
3336.31	20.5633
3338.4	27.7437
3340.49	24.2785
3342.58	17.6783
3344.67	30.5379
3346.76	21.131
3348.85	25.1262
3350.94	23.6214
3353.02	21.9679
3355.11	23.4542
3357.2	21.7481
3359.28	28.5237
3361.37	22.9107
3363.45	25.129
3365.53	19.1636
3367.62	29.6858
3369.7	28.0309
3371.78	32.2876
3373.86	29.626
3375.94	30.5759
3378.02	18.0174
3380.1	32.8234
3382.18	27.3634
3384.25	15.6074
3386.33	21.0925
3388.41	23.202
3390.48	20.7045
3392.56	23.5048
3394.63	21.7539
3396.71	18.5446
3398.78	23.5196
3400.85	19.4849
3402.92	17.7006
3404.99	23.883
3407.06	22.4322
3409.13	18.5368
3411.2	19.6973
3413.27	14.1251
3415.34	10.6905
3417.4	10.2662
3419.47	23.6224
3421.54	18.4021
3423.6	17.2214
3425.67	9.94772
3427.73	19.9439
3429.79	20.6934
3431.86	11.3353
3433.92	17.9462
3435.98	5.66819
3438.04	8.42782
3440.1	4.47855
3442.16	20.5743
3444.22	11.9524
3446.27	12.0952
3448.33	15.4509
3450.39	5.86838
3452.44	8.91084
3454.5	8.67224
3456.55	13.389
3458.61	3.06498
3460.66	11.8065
3462.71	-0.382921
3464.77	6.96628
3466.82	8.52501
3468.87	-3.4778
3470.92	1.60941
3472.97	-1.10137
3475.02	-6.07953
3477.06	-1.20289
3479.11	0.00664732
3481.16	-4.00822
3483.2	4.15672
3485.25	0.429319
3487.3	0.349362
3489.34	-5.48293
3491.38	-1.14233
3493.43	-11.6522
3495.47	-4.54697
3497.51	-8.37557
3499.55	5.34359
