200.057	-53.9945
203.219	-31.8844
206.378	27.4278
209.539	71.0279
212.696	130.235
215.854	174.568
219.009	219.825
222.165	229.543
225.318	208.811
228.472	183.254
231.622	139.95
234.774	103.711
237.923	70.7925
241.07	48.3714
244.217	34.631
247.364	40.0755
250.508	50.6206
253.652	58.7895
256.794	65.4992
259.937	66.5169
263.077	82.3639
266.216	82.3453
269.354	109.376
272.491	129.195
275.626	145.382
278.761	152.213
281.895	174.761
285.027	135.111
288.159	107.249
291.287	68.0261
294.417	61.7524
297.545	39.4526
300.672	25.0042
303.799	12.6718
306.922	0.143345
310.046	-0.133071
313.169	0.318488
316.289	5.5311
319.41	-3.38271
322.528	-0.333581
325.647	10.9071
328.764	8.66589
331.879	25.8666
334.993	30.8794
338.107	48.1476
341.219	84.9797
344.332	125.977
347.441	143.288
350.549	191.056
353.659	197.289
356.765	195.307
359.87	191.63
362.975	211.554
366.078	187.941
369.18	170.66
372.281	140.999
375.383	101.729
378.482	64.3427
381.58	71.1253
384.675	49.561
387.771	52.2079
390.865	43.9778
393.959	48.453
397.052	52.5834
400.144	65.5663
403.234	72.9883
406.322	102.467
409.411	102.849
412.498	126.76
415.583	171.252
418.668	205.399
421.75	270.518
424.834	365.535
427.916	462.658
430.996	505.634
434.074	469.501
437.153	380.709
440.229	292.865
443.306	210.977
446.381	174.999
449.454	157.256
452.526	144.557
455.599	134.333
458.669	118.363
461.738	104.265
464.806	78.6228
467.873	64.3832
470.939	62.3601
474.004	59.0421
477.067	57.0256
480.13	58.3369
483.192	63.4486
486.253	70.0614
489.313	68.5694
492.369	73.2762
495.427	66.6458
498.484	74.6518
501.54	84.8868
504.592	105.209
507.646	126.809
510.698	134.279
513.748	109.092
516.799	82.7846
519.846	74.8759
522.895	59.3451
525.94	37.0802
528.985	31.065
532.03	10.0955
535.073	16.0306
538.114	13.9836
541.157	21.0094
544.196	13.0421
547.234	21.747
550.272	18.2056
553.308	33.516
556.344	33.5558
559.378	34.5676
562.411	28.809
565.444	44.3867
568.475	50.481
571.505	52.2883
574.535	70.7592
577.563	113.089
580.588	128.217
583.615	178.896
586.64	212.372
589.662	240.944
592.686	255.265
595.708	247.829
598.727	229.935
601.747	194.997
604.765	154.164
607.783	138.389
610.798	101.509
613.813	85.8747
616.828	74.2954
619.84	70.7344
622.851	59.0154
625.862	70.4295
628.873	58.5579
631.881	52.1255
634.889	59.7109
637.895	50.9219
640.9	58.6721
643.904	73.6391
646.908	51.8286
649.91	62.039
652.909	52.4982
655.91	58.6994
658.909	57.281
661.907	64.0052
664.903	86.8165
667.899	116.54
670.895	209.15
673.887	296.692
676.88	305.816
679.871	262.834
682.862	233.916
685.851	180.333
688.84	133.993
691.827	110.32
694.812	90.1937
697.799	72.5136
700.782	72.358
703.765	52.4974
706.746	61.262
709.727	46.2345
712.706	48.9807
715.685	23.6661
718.663	26.0975
721.639	7.88301
724.615	8.33704
727.59	20.938
730.563	16.9572
733.536	12.0728
736.506	30.0199
739.477	72.1184
742.446	68.8226
745.413	57.8281
748.381	46.094
751.346	39.282
754.312	25.1705
757.275	2.98857
760.239	-3.01425
763.2	-0.576876
766.16	-2.54641
769.121	-2.40076
772.079	-4.07421
775.036	-4.39433
777.992	-11.7551
780.947	-4.44959
783.901	-11.8319
786.855	-24.1357
789.807	-13.4842
792.758	-3.64339
795.709	-16.0243
798.658	9.23768
801.606	25.8184
804.554	33.4114
807.498	51.426
810.444	68.5431
813.388	105.588
816.33	129.138
819.273	233.097
822.212	309.224
825.153	395.976
828.091	470.224
831.027	632.121
833.965	762.109
836.9	785.862
839.834	667.731
842.769	501.57
845.701	366.622
848.632	276.114
851.562	255.162
854.491	226.931
857.419	221.21
860.347	205.527
863.273	155.591
866.196	142.424
869.121	137.405
872.044	109.261
874.966	94.9435
877.886	93.5319
880.807	90.0526
883.726	84.2324
886.643	110.81
889.561	124.163
892.475	149.168
895.389	161.531
898.304	150.15
901.216	161.984
904.127	161.832
907.037	152.342
909.948	143.363
912.856	134.639
915.764	106.721
918.67	105.766
921.575	95.6283
924.479	103.394
927.381	102.163
930.284	113.148
933.185	124.573
936.086	131.358
938.983	136.169
941.882	129.737
944.78	162.03
947.675	197.239
950.571	193.827
953.464	159.92
956.358	136.533
959.249	126.434
962.139	92.5883
965.028	70.0891
967.919	58.7139
970.806	51.3003
973.693	46.0952
976.578	51.8099
979.463	41.6952
982.346	22.2721
985.229	5.40435
988.111	2.81501
990.992	14.1259
993.87	-4.35704
996.749	6.08617
999.627	10.1149
1002.5	1.16207
1005.38	11.9905
1008.25	-0.990605
1011.13	-5.63443
1014	-0.232932
1016.87	-5.3707
1019.74	7.22336
1022.61	8.93931
1025.48	42.8622
1028.35	62.5989
1031.21	84.9062
1034.08	119.651
1036.94	134.183
1039.8	148.221
1042.67	168.48
1045.53	176.881
1048.39	235.91
1051.25	291.556
1054.1	328.907
1056.96	334.22
1059.82	294.763
1062.67	240.319
1065.53	184.427
1068.38	148.603
1071.23	114.186
1074.08	110.581
1076.93	161.708
1079.78	271.149
1082.63	388.552
1085.48	456.445
1088.32	387.428
1091.17	304.251
1094.01	239.904
1096.85	210.342
1099.7	202.342
1102.54	165.473
1105.38	129.302
1108.21	96.4498
1111.05	74.2735
1113.89	36.767
1116.72	56.1747
1119.56	66.718
1122.39	92.8739
1125.23	117.809
1128.06	150.197
1130.89	159.942
1133.72	183.056
1136.55	229.402
1139.37	245.009
1142.2	213.359
1145.03	154.296
1147.85	108.68
1150.67	73.9703
1153.5	39.7858
1156.32	26.1033
1159.14	9.98586
1161.96	4.73621
1164.78	3.39114
1167.6	4.66274
1170.41	0.472238
1173.23	5.48564
1176.04	19.1652
1178.86	28.6982
1181.67	44.5101
1184.48	44.7612
1187.29	58.7196
1190.1	62.7061
1192.91	74.2192
1195.72	70.7299
1198.52	88.9764
1201.33	90.8417
1204.13	105.385
1206.94	133.216
1209.74	161.874
1212.54	187.541
1215.34	212.724
1218.14	221.47
1220.94	190.313
1223.74	159.064
1226.54	124.839
1229.33	111.225
1232.13	93.2802
1234.92	89.51
1237.71	80.584
1240.5	91.5778
1243.3	85.8091
1246.09	95.2313
1248.87	112.172
1251.66	138.382
1254.45	176.135
1257.23	223.671
1260.02	218.275
1262.8	201.2
1265.59	166.405
1268.37	131.399
1271.15	110.956
1273.93	92.0186
1276.71	89.9287
1279.48	87.1471
1282.26	100.705
1285.04	119.487
1287.81	142.331
1290.58	197.858
1293.36	228.944
1296.13	265.239
1298.9	271.739
1301.67	298.54
1304.44	275.242
1307.21	240.169
1309.98	185.672
1312.74	147.131
1315.51	138.939
1318.27	121.316
1321.03	121.158
1323.8	151.456
1326.56	183.166
1329.32	257.803
1332.08	385.576
1334.83	508.611
1337.59	565.144
1340.35	544.56
1343.1	470.33
1345.86	415.075
1348.61	339.429
1351.36	295.538
1354.11	307.381
1356.86	293.319
1359.61	317.115
1362.36	331.356
1365.11	284.831
1367.86	245.688
1370.6	195.735
1373.35	167.03
1376.09	140.901
1378.83	135.81
1381.57	139.637
1384.31	128.099
1387.05	111.107
1389.79	132.869
1392.53	170.692
1395.27	222.127
1398	271.27
1400.74	301.538
1403.47	315.981
1406.2	307.179
1408.94	279.948
1411.67	275.854
1414.4	251.664
1417.12	271.49
1419.85	288.617
1422.58	283.055
1425.31	299.721
1428.03	296.898
1430.75	315.664
1433.48	346.641
1436.2	420.827
1438.92	486.549
1441.64	579.528
1444.36	735.54
1447.08	832.986
1449.79	834.129
1452.51	753.202
1455.23	678.995
1457.94	568.068
1460.66	465.354
1463.37	411.254
1466.08	352.219
1468.79	317.332
1471.5	274.865
1474.21	268.245
1476.92	255.401
1479.62	224.722
1482.33	200.82
1485.03	166.177
1487.74	131.907
1490.44	95.0197
1493.14	73.4357
1495.84	60.6125
1498.54	58.4095
1501.24	73.6612
1503.94	77.1163
1506.63	97.8971
1509.33	123.34
1512.03	188.154
1514.72	302.52
1517.41	481.953
1520.11	709.599
1522.8	928.038
1525.49	986.686
1528.18	873.511
1530.87	693.41
1533.55	497.394
1536.24	334.257
1538.93	203.974
1541.61	155.304
1544.29	114.689
1546.98	105.475
1549.66	72.1721
1552.34	61.274
1555.02	60.2037
1557.7	59.886
1560.38	53.9245
1563.05	51.8145
1565.73	50.7755
1568.4	53.583
1571.08	39.5723
1573.75	41.5026
1576.42	48.7509
1579.09	61.9756
1581.77	55.7552
1584.43	87.5446
1587.1	79.6787
1589.77	90.3229
1592.44	77.0528
1595.1	73.2532
1597.77	78.138
1600.43	49.1986
1603.09	53.6733
1605.76	61.0156
1608.42	37.2899
1611.08	40.0089
1613.74	41.9541
1616.39	30.2915
1619.05	29.0507
1621.71	23.7071
1624.36	32.8551
1627.02	23.0121
1629.67	18.9056
1632.32	20.9309
1634.97	23.2341
1637.62	24.9348
1640.27	19.9728
1642.92	23.6496
1645.57	26.5125
1648.22	33.3116
1650.86	30.4093
1653.51	38.4498
1656.15	25.3914
1658.79	42.2362
1661.44	29.6343
1664.08	26.7287
1666.72	40.4508
1669.36	30.0753
1671.99	26.4882
1674.63	24.0521
1677.27	39.0122
1679.9	41.6459
1682.54	28.2426
1685.17	15.6728
1687.81	41.4889
1690.44	47.129
1693.07	27.3635
1695.7	30.377
1698.33	36.1961
1700.96	32.9703
1703.58	40.4452
1706.21	45.8932
1708.83	59.2063
1711.46	76.122
1714.08	131.828
1716.7	226.924
1719.32	406.855
1721.94	598.296
1724.56	684.508
1727.18	669.34
1729.8	620.119
1732.42	540.39
1735.03	459.054
1737.65	385.049
1740.26	333.234
1742.88	289.504
1745.49	259.439
1748.1	213.745
1750.71	170.183
1753.32	148.703
1755.93	109.616
1758.53	74.8332
1761.14	59.8312
1763.75	50.1749
1766.35	42.0252
1768.96	40.4547
1771.56	25.5932
1774.16	29.7443
1776.76	40.3957
1779.36	38.1822
1781.96	37.8478
1784.56	22.3355
1787.16	35.7667
1789.75	28.3838
1792.35	44.7877
1794.94	18.779
1797.54	25.6697
1800.13	22.9264
1802.72	35.1779
1805.31	21.4708
1807.9	25.4984
1810.49	22.0716
1813.08	19.3956
1815.67	16.4331
1818.25	21.2754
1820.84	18.8252
1823.42	13.7178
1826.01	14.9077
1828.59	18.3045
1831.17	22.7074
1833.75	12.1215
1836.33	16.5628
1838.91	5.53025
1841.49	9.32483
1844.07	1.25258
1846.64	9.53575
1849.22	6.60546
1851.79	8.66388
1854.36	9.71712
1856.94	-0.00804282
1859.51	-13.187
1862.08	-22.354
1864.65	-14.8504
1867.22	-20.0223
1869.79	-19.862
1872.35	-24.2822
1874.92	-19.5434
1877.49	-34.5259
1880.05	-19.279
1882.61	-10.2514
1885.18	-2.30748
1887.74	15.8704
1890.3	15.9356
1892.86	20.7892
1895.42	8.47244
1897.97	14.4458
1900.53	27.4487
1903.09	27.5941
1905.64	20.9405
1908.2	11.0958
1910.75	16.7761
1913.3	11.5993
1915.86	12.1925
1918.41	20.9904
1920.96	13.3661
1923.5	18.969
1926.05	12.8599
1928.6	11.2629
1931.15	2.59748
1933.69	17.9059
1936.24	10.389
1938.78	4.05939
1941.32	8.76847
1943.86	3.87907
1946.4	-1.31352
1948.94	0.0783776
1951.48	1.18115
1954.02	-5.6617
1956.56	-5.02397
1959.09	-3.68158
1961.63	-4.2209
1964.16	-6.23702
1966.7	-2.46615
1969.23	-17.5197
1971.76	5.7511
1974.29	0.224486
1976.82	-9.94119
1979.35	-1.55175
1981.88	-6.1932
1984.41	-9.56756
1986.93	-1.80373
1989.46	-1.80583
1991.98	-5.73026
1994.51	-2.26328
1997.03	-9.09794
1999.55	2.52141
2002.07	-6.16534
2004.59	-3.02399
2007.11	4.31104
2009.63	7.88253
2012.15	8.28072
2014.66	12.9838
2017.18	4.20216
2019.69	15.0182
2022.21	16.0823
2024.72	28.9443
2027.23	8.49415
2029.75	12.6239
2032.26	6.3973
2034.77	3.441
2037.27	-2.72643
2039.78	14.4449
2042.29	15.8664
2044.79	12.898
2047.3	9.37603
2049.8	8.12631
2052.31	10.4369
2054.81	22.9484
2057.31	9.62791
2059.81	2.8625
2062.31	-5.79847
2064.81	-4.31709
2067.31	-3.66188
2069.8	5.06358
2072.3	-15.7708
2074.79	-9.00278
2077.29	-2.99352
2079.78	-16.558
2082.27	-0.180694
2084.77	-10.4633
2087.26	-8.32076
2089.75	12.0129
2092.24	12.2342
2094.72	-2.73523
2097.21	-3.05075
2099.7	-9.25172
2102.18	7.12021
2104.67	-2.00506
2107.15	-8.40078
2109.63	1.83153
2112.11	0.239239
2114.6	-5.92724
2117.08	-0.999752
2119.56	8.15693
2122.03	-6.00189
2124.51	2.16922
2126.99	12.3362
2129.46	-1.22217
2131.94	3.90147
2134.41	15.0624
2136.89	3.78343
2139.36	-9.42823
2141.83	8.21568
2144.3	4.84324
2146.77	6.79333
2149.24	4.93648
2151.71	1.51733
2154.17	11.0281
2156.64	6.85892
2159.1	1.52479
2161.57	17.9231
2164.03	14.0574
2166.49	6.86387
2168.96	25.835
2171.42	10.015
2173.88	16.3126
2176.34	27.0964
2178.79	26.9864
2181.25	13.8758
2183.71	16.1387
2186.16	26.2386
2188.62	26.3237
2191.07	24.9016
2193.53	18.5305
2195.98	22.4112
2198.43	16.957
2200.88	17.8277
2203.33	17.5125
2205.78	28.9513
2208.23	28.6505
2210.67	26.0245
2213.12	7.1994
2215.56	20.2369
2218.01	12.8546
2220.45	-5.63282
2222.89	8.16938
2225.33	6.40391
2227.78	7.13925
2230.22	8.697
2232.66	11.9535
2235.09	-4.93199
2237.53	-6.52661
2239.97	-2.80009
2242.4	-4.49306
2244.84	-13.1871
2247.27	-7.15373
2249.7	4.43688
2252.14	-4.88969
2254.57	-8.5885
2257	10.4037
2259.43	-2.17472
2261.86	-2.23021
2264.28	-2.80709
2266.71	3.81618
2269.14	-0.807365
2271.56	15.3544
2273.99	19.1891
2276.41	17.3163
2278.83	1.55103
2281.26	11.4216
2283.67	7.67923
2286.1	4.34046
2288.52	6.80796
2290.93	5.61768
2293.35	-7.18826
2295.77	10.6912
2298.18	-2.38736
2300.6	-5.7165
2303.01	8.95477
2305.43	7.21827
2307.84	2.01537
2310.25	-2.79262
2312.66	-14.3005
2315.07	-6.92592
2317.48	-8.53379
2319.89	-2.70892
2322.29	2.8036
2324.7	6.03521
2327.11	6.19995
2329.51	-2.86329
2331.91	0.652891
2334.32	-5.89833
2336.72	-5.28805
2339.12	-14.3594
2341.52	-5.87515
2343.92	-0.0109128
2346.32	0.438101
2348.72	-4.86553
2351.11	-7.54658
2353.51	2.82453
2355.91	0.498104
2358.3	6.87417
2360.69	5.27649
2363.09	8.65126
2365.48	2.14249
2367.87	-4.45794
2370.26	7.36533
2372.65	1.67231
2375.04	14.2228
2377.42	-0.354853
2379.81	12.3089
2382.2	3.6035
2384.58	18.1145
2386.97	5.47175
2389.35	2.19609
2391.73	11.0234
2394.11	3.95315
2396.5	10.3237
2398.87	-1.3225
2401.25	20.0895
2403.63	14.1109
2406.01	20.7987
2408.39	21.003
2410.76	16.1724
2413.14	6.70337
2415.51	9.71035
2417.89	16.0745
2420.26	17.3266
2422.63	17.7453
2425	9.49462
2427.37	15.9162
2429.74	22.9272
2432.11	25.8539
2434.47	15.2719
2436.84	32.6591
2439.21	29.8439
2441.57	27.9337
2443.93	23.0916
2446.3	15.2675
2448.66	17.9728
2451.02	24.1944
2453.38	15.6188
2455.74	25.9731
2458.1	30.9161
2460.46	21.3105
2462.82	17.3922
2465.17	22.884
2467.53	27.9694
2469.88	26.6725
2472.24	27.526
2474.59	39.9181
2476.94	28.6137
2479.29	30.1389
2481.64	48.1983
2483.99	34.6651
2486.34	40.5401
2488.69	58.7482
2491.04	42.5928
2493.38	43.4041
2495.73	37.1731
2498.08	38.5763
2500.42	42.3724
2502.76	38.8565
2505.11	37.6395
2507.45	52.3611
2509.79	44.9272
2512.13	50.475
2514.47	45.9608
2516.8	42.8559
2519.14	57.5866
2521.48	57.01
2523.81	44.0271
2526.15	56.8691
2528.48	52.6182
2530.81	57.3559
2533.15	71.5258
2535.48	57.723
2537.81	52.8758
2540.14	53.339
2542.47	56.2467
2544.8	63.4744
2547.12	67.8213
2549.45	61.2414
2551.77	68.5528
2554.1	77.0163
2556.42	72.9102
2558.75	76.8837
2561.07	83.3713
2563.39	68.9743
2565.71	88.807
2568.03	84.9731
2570.35	77.1913
2572.67	77.9941
2574.99	72.8048
2577.3	87.4008
2579.62	95.7387
2581.93	81.0254
2584.25	88.4402
2586.56	94.4591
2588.87	99.3725
2591.19	103.412
2593.5	97.7433
2595.81	87.6759
2598.11	101.995
2600.42	105.482
2602.73	100.414
2605.04	98.6868
2607.34	107.589
2609.65	106.846
2611.95	98.6037
2614.26	94.3057
2616.56	106.301
2618.86	113.441
2621.16	112.204
2623.46	113.231
2625.76	105.223
2628.06	105.815
2630.36	120.009
2632.65	112.251
2634.95	119.393
2637.25	115.403
2639.54	108.132
2641.83	129.653
2644.13	118.747
2646.42	119.027
2648.71	127.778
2651	123.16
2653.29	121.773
2655.58	134.587
2657.87	128.168
2660.15	138.624
2662.44	149.778
2664.72	164.405
2667.01	161.044
2669.29	170.437
2671.58	159.435
2673.86	180.353
2676.14	170.586
2678.42	167.344
2680.7	148.921
2682.98	146.21
2685.26	139.008
2687.54	137.283
2689.81	128.934
2692.09	120.726
2694.36	119.658
2696.64	128.344
2698.91	117.564
2701.18	117.274
2703.45	120.41
2705.72	110.486
2707.99	106.351
2710.26	110.996
2712.53	110.992
2714.8	108.268
2717.07	125.417
2719.33	124.028
2721.6	148.098
2723.86	143.365
2726.13	165.828
2728.39	162.98
2730.65	169.105
2732.91	174.959
2735.17	174.988
2737.43	173.415
2739.69	173.577
2741.95	167.019
2744.21	160.092
2746.46	149.971
2748.72	148.934
2750.97	138.381
2753.23	136.952
2755.48	117.985
2757.73	102.72
2759.98	83.6675
2762.24	72.9079
2764.49	68.5168
2766.73	64.0039
2768.98	57.0709
2771.23	46.3126
2773.48	52.4469
2775.72	42.8281
2777.97	39.934
2780.21	34.7637
2782.46	37.4319
2784.7	36.5905
2786.94	34.5151
2789.18	35.771
2791.42	38.6426
2793.66	41.505
2795.9	33.6344
2798.14	30.1588
2800.38	22.1763
2802.61	7.31838
2804.85	7.49985
2807.08	2.38926
2809.32	-5.59262
2811.55	-2.84984
2813.78	-7.10099
2816.02	-9.708
2818.25	-16.1983
2820.48	-9.03154
2822.71	-6.16434
2824.94	-6.24004
2827.16	-6.9301
2829.39	-5.33754
2831.61	4.24938
2833.84	6.15866
2836.06	9.36142
2838.29	8.54806
2840.51	9.11694
2842.73	26.4145
2844.96	42.5107
2847.18	56.3063
2849.4	79.5366
2851.61	97.2349
2853.83	119.535
2856.05	148.845
2858.27	180.089
2860.48	211.47
2862.7	268.268
2864.91	334.561
2867.13	421.248
2869.34	522.505
2871.55	621.135
2873.76	700.922
2875.97	746.22
2878.18	760.661
2880.39	759.108
2882.6	737.429
2884.81	720.054
2887.01	705.897
2889.22	686.611
2891.42	700.516
2893.63	714.849
2895.83	744.139
2898.03	795.064
2900.23	834.182
2902.43	906.952
2904.63	958.636
2906.83	1048.15
2909.03	1137.92
2911.09	1235.74
2913.31	1354.44
2915.54	1559.9
2917.76	1856.55
2919.99	2256.62
2922.21	2909.53
2924.43	3749.76
2926.65	4654.05
2928.87	5135.19
2931.09	5202.9
2933.31	5071.42
2935.53	4725.19
2937.75	4255.26
2939.97	3731.96
2942.18	3236.79
2944.4	2774.12
2946.61	2395.83
2948.83	2143.56
2951.04	1931.18
2953.25	1769.04
2955.47	1700.25
2957.68	1685.01
2959.89	1675.39
2962.1	1758.2
2964.31	1871.5
2966.52	2049.99
2968.73	2098.27
2970.93	2101.46
2973.14	2048.72
2975.35	1937.43
2977.55	1802.11
2979.76	1622.22
2981.96	1469.32
2984.16	1345.28
2986.37	1270.56
2988.57	1245.23
2990.77	1265.66
2992.97	1331.25
2995.17	1408.05
2997.37	1429.61
2999.57	1393.92
3001.77	1308.65
3003.96	1203.27
3006.16	1114.79
3008.36	1032.48
3010.55	936.695
3012.75	811.268
3014.94	655.601
3017.13	523.18
3019.32	401.615
3021.52	303.916
3023.71	249.663
3025.9	198.95
3028.09	160.97
3030.28	140.133
3032.46	120.536
3034.65	106.803
3036.84	83.2634
3039.02	83.2167
3041.21	70.1559
3043.39	77.8536
3045.58	71.7597
3047.76	83.6575
3049.94	80.0577
3052.13	92.7986
3054.31	77.1505
3056.49	76.5808
3058.67	67.0511
3060.85	60.7257
3063.03	48.3835
3065.2	24.2327
3067.38	20.9229
3069.56	14.5899
3071.73	22.8165
3073.91	1.6134
3076.08	4.59757
3078.26	5.33887
3080.43	15.331
3082.6	0.941632
3084.77	1.33352
3086.95	6.71068
3089.12	-5.05216
3091.29	-0.614848
3093.46	4.88697
3095.62	0.212888
3097.79	-3.16179
3099.96	5.72977
3102.12	-7.59701
3104.29	-4.67811
3106.45	-10.1323
3108.62	-1.25103
3110.78	-9.66605
3112.95	-7.56579
3115.11	-7.44718
3117.27	-1.49436
3119.43	-3.59856
3121.59	1.51504
3123.75	6.37452
3125.91	2.79672
3128.07	-0.991025
3130.22	12.9769
3132.38	2.31296
3134.54	6.30015
3136.69	1.6484
3138.85	4.18414
3141	0.993137
3143.16	11.2994
3145.31	12.7846
3147.46	9.25356
3149.61	18.2942
3151.76	20.3719
3153.91	10.2074
3156.06	23.1305
3158.21	26.0083
3160.36	22.404
3162.51	17.3344
3164.65	34.9051
3166.8	22.829
3168.94	32.9359
3171.09	26.6352
3173.23	32.5734
3175.38	36.9458
3177.52	36.705
3179.66	46.9598
3181.8	42.6642
3183.94	40.2303
3186.08	47.3047
3188.22	47.5623
3190.36	50.9639
3192.5	54.0542
3194.63	55.0314
3196.77	44.7653
3198.91	59.1069
3201.04	43.1067
3203.18	50.1566
3205.31	46.2912
3207.44	61.7772
3209.58	55.8213
3211.71	67.3006
3213.84	47.7006
3215.97	59.8284
3218.1	56.185
3220.23	49.0562
3222.36	59.2822
3224.49	65.3229
3226.61	52.6764
3228.74	52.1879
3230.87	56.096
3232.99	56.2195
3235.11	62.6635
3237.24	63.5263
3239.36	56.9685
3241.48	55.7257
3243.61	62.8585
3245.73	59.238
3247.85	61.609
3249.97	64.9569
3252.09	58.4841
3254.2	59.3821
3256.32	72.5889
3258.44	70.0365
3260.56	59.8739
3262.67	70.4921
3264.79	64.6866
3266.9	84.527
3269.02	73.3173
3271.13	73.3334
3273.24	65.5366
3275.35	70.2337
3277.46	71.1215
3279.57	64.7224
3281.68	72.9947
3283.79	78.9141
3285.9	74.8837
3288.01	76.7075
3290.12	67.9734
3292.22	69.4105
3294.33	68.4519
3296.43	70.4202
3298.54	76.9491
3300.64	74.7676
3302.75	75.4389
3304.85	84.3941
3306.95	72.7196
3309.05	80.5985
3311.15	82.9044
3313.25	74.2267
3315.35	82.7939
3317.45	80.3776
3319.55	71.9082
3321.65	74.6511
3323.74	82.2939
3325.84	88.4099
3327.93	83.5
3330.03	87.4445
3332.12	81.3263
3334.21	86.7156
3336.31	80.9387
3338.4	91.3043
3340.49	87.4552
3342.58	82.9265
3344.67	81.4699
3346.76	82.2632
3348.85	82.3524
3350.94	79.6493
3353.02	83.4495
3355.11	86.1399
3357.2	86.1046
3359.28	89.1044
3361.37	85.9192
3363.45	84.3489
3365.53	93.346
3367.62	87.7785
3369.7	80.6167
3371.78	85.6652
3373.86	89.7067
3375.94	81.0787
3378.02	89.3247
3380.1	71.7686
3382.18	81.4444
3384.25	81.7198
3386.33	76.5043
3388.41	85.925
3390.48	75.9404
3392.56	75.5339
3394.63	79.99
3396.71	75.0443
3398.78	86.9436
3400.85	72.6167
3402.92	78.2948
3404.99	77.4012
3407.06	73.5098
3409.13	68.3179
3411.2	76.1001
3413.27	75.5165
3415.34	66.3751
3417.4	72.8076
3419.47	59.0911
3421.54	74.887
3423.6	61.5942
3425.67	63.086
3427.73	64.0904
3429.79	65.9212
3431.86	66.105
3433.92	69.4168
3435.98	56.2574
3438.04	53.5296
3440.1	46.2337
3442.16	51.3795
3444.22	45.0321
3446.27	37.7846
3448.33	46.318
3450.39	39.0242
3452.44	41.7965
3454.5	41.0854
3456.55	34.755
3458.61	33.9438
3460.66	34.9364
3462.71	37.7849
3464.77	23.0616
3466.82	34.4276
3468.87	28.9106
3470.92	20.1937
3472.97	28.6738
3475.02	23.7713
3477.06	6.62777
3479.11	14.5594
3481.16	11.6731
3483.2	4.57578
3485.25	11.8537
3487.3	0.60957
3489.34	-5.2552
3491.38	-1.86074
3493.43	0.0869467
3495.47	-0.984662
3497.51	-0.872142
3499.55	-13.3718
