200.057	10.8413
203.219	22.2991
206.378	23.1236
209.539	38.2833
212.696	37.5011
215.854	17.6172
219.009	17.2836
222.165	19.9941
225.318	18.8022
228.472	25.386
231.622	25.4317
234.774	32.5324
237.923	35.0645
241.07	23.7305
244.217	30.2673
247.364	20.9887
250.508	12.9295
253.652	0.770445
256.794	9.74881
259.937	-2.87611
263.077	-11.9168
266.216	4.33696
269.354	-1.16033
272.491	1.55724
275.626	4.70259
278.761	18.4643
281.895	46.5323
285.027	58.3312
288.159	71.7089
291.287	102.222
294.417	117.25
297.545	150.342
300.672	171.539
303.799	193.252
306.922	194.33
310.046	193.877
313.169	177.006
316.289	168.521
319.41	140.071
322.528	124.554
325.647	118.967
328.764	102.877
331.879	81.182
334.993	82.602
338.107	73.8155
341.219	86.106
344.332	86.1653
347.441	84.5907
350.549	76.2892
353.659	82.0451
356.765	81.6579
359.87	82.1585
362.975	81.7176
366.078	87.6531
369.18	82.7478
372.281	97.3661
375.383	117.315
378.482	147.965
381.58	179.78
384.675	219.182
387.771	270.071
390.865	320.76
393.959	348.22
397.052	353.479
400.144	359.582
403.234	342.464
406.322	314.478
409.411	293.777
412.498	270.714
415.583	233.798
418.668	195.375
421.75	172.47
424.834	173.925
427.916	156.696
430.996	161.256
434.074	165.701
437.153	155.492
440.229	172.969
443.306	159.597
446.381	159.924
449.454	152.178
452.526	134.021
455.599	134.243
458.669	126.035
461.738	99.3876
464.806	98.1045
467.873	69.6129
470.939	73.7066
474.004	66.7189
477.067	59.7968
480.13	63.1691
483.192	53.6519
486.253	61.3849
489.313	57.1055
492.369	65.2725
495.427	64.9786
498.484	78.9702
501.54	77.1114
504.592	83.487
507.646	102.301
510.698	100.54
513.748	93.8659
516.799	79.6132
519.846	77.2395
522.895	60.9537
525.94	56.8583
528.985	49.7084
532.03	45.2149
535.073	40.7542
538.114	38.6434
541.157	41.746
544.196	50.9007
547.234	47.4495
550.272	39.7453
553.308	51.9431
556.344	45.0088
559.378	50.8809
562.411	58.9933
565.444	61.6949
568.475	62.7331
571.505	58.9165
574.535	75.299
577.563	80.6262
580.588	82.097
583.615	87.6928
586.64	92.0091
589.662	100.912
592.686	104.358
595.708	117.914
598.727	118.644
601.747	129.973
604.765	135.054
607.783	130.155
610.798	123.719
613.813	130.187
616.828	123.63
619.84	107.882
622.851	105.445
625.862	94.4505
628.873	94.2368
631.881	88.4922
634.889	75.7945
637.895	73.2124
640.9	69.9768
643.904	66.5712
646.908	66.2718
649.91	65.0527
652.909	65.0216
655.91	62.5043
658.909	65.1907
661.907	61.447
664.903	69.6385
667.899	72.271
670.895	67.0357
673.887	68.871
676.88	67.6468
679.871	60.7889
682.862	68.7362
685.851	61.1547
688.84	77.4258
691.827	70.5433
694.812	78.4185
697.799	76.6142
700.782	79.6224
703.765	72.0973
706.746	84.464
709.727	74.6199
712.706	67.8374
715.685	57.9166
718.663	55.0776
721.639	51.9257
724.615	49.9074
727.59	55.0763
730.563	70.3594
733.536	93.4458
736.506	109.431
739.477	101.58
742.446	93.7158
745.413	98.2785
748.381	82.3461
751.346	87.5044
754.312	74.4571
757.275	54.2743
760.239	55.5069
763.2	56.7565
766.16	41.3393
769.121	37.7906
772.079	32.2956
775.036	27.0964
777.992	18.8566
780.947	19.1935
783.901	18.0004
786.855	6.76676
789.807	7.6256
792.758	-0.258003
795.709	9.26085
798.658	1.51064
801.606	0.245485
804.554	4.17963
807.498	10.2032
810.444	10.6474
813.388	15.5839
816.33	12.1339
819.273	7.39114
822.212	23.7067
825.153	16.4784
828.091	16.9613
831.027	29.8724
833.965	33.2816
836.9	42.1737
839.834	63.384
842.769	73.1185
845.701	88.7442
848.632	100.248
851.562	126.721
854.491	172.776
857.419	255.888
860.347	393.562
863.273	614.475
866.196	867.505
869.121	1066.56
872.044	1086.83
874.966	1002.6
877.886	759.172
880.807	525.238
883.726	329.433
886.643	217.922
889.561	157.078
892.475	127.618
895.389	109.9
898.304	100.815
901.216	100.355
904.127	94.0204
907.037	99.7613
909.948	106.742
912.856	119.143
915.764	124.984
918.67	140.49
921.575	150.027
924.479	124.202
927.381	119.41
930.284	95.353
933.185	68.135
936.086	58.0504
938.983	54.3554
941.882	42.2301
944.78	27.1056
947.675	35.1737
950.571	35.1406
953.464	21.2008
956.358	28.3846
959.249	14.4799
962.139	5.58719
965.028	10.8783
967.919	4.69706
970.806	6.56279
973.693	-6.79791
976.578	-5.40724
979.463	0.291298
982.346	-1.33638
985.229	-14.4475
988.111	-0.849955
990.992	0.916354
993.87	-7.46911
996.749	4.68644
999.627	-5.65536
1002.5	2.8968
1005.38	-2.90201
1008.25	12.6687
1011.13	10.4393
1014	25.7226
1016.87	34.5603
1019.74	51.4819
1022.61	55.4862
1025.48	84.3317
1028.35	117.149
1031.21	178.869
1034.08	241.432
1036.94	303.784
1039.8	328.258
1042.67	335.272
1045.53	295.212
1048.39	242.636
1051.25	175.472
1054.1	136.684
1056.96	103.75
1059.82	78.2498
1062.67	57.9624
1065.53	48.4642
1068.38	45.6307
1071.23	37.4053
1074.08	48.1481
1076.93	48.9931
1079.78	78.1379
1082.63	86.9554
1085.48	118.932
1088.32	139.255
1091.17	162.912
1094.01	161.118
1096.85	170.97
1099.7	165.554
1102.54	136.724
1105.38	115.823
1108.21	119.108
1111.05	113.996
1113.89	136.133
1116.72	177.305
1119.56	221.069
1122.39	268.512
1125.23	295.71
1128.06	304.546
1130.89	275.681
1133.72	248.203
1136.55	193.726
1139.37	145.154
1142.2	106.772
1145.03	78.3244
1147.85	54.9874
1150.67	28.9417
1153.5	27.55
1156.32	24.0455
1159.14	3.06471
1161.96	14.8297
1164.78	9.51442
1167.6	9.14849
1170.41	9.97772
1173.23	20.3515
1176.04	29.1806
1178.86	33.6585
1181.67	28.4846
1184.48	39.1489
1187.29	25.3432
1190.1	28.6626
1192.91	11.8708
1195.72	21.8209
1198.52	20.1066
1201.33	25.7215
1204.13	24.45
1206.94	32.1962
1209.74	33.1237
1212.54	42.4433
1215.34	42.5242
1218.14	46.6551
1220.94	37.1653
1223.74	39.3102
1226.54	21.7253
1229.33	21.7077
1232.13	15.0299
1234.92	20.1238
1237.71	10.1224
1240.5	11.7342
1243.3	7.99906
1246.09	13.6446
1248.87	9.18002
1251.66	1.22647
1254.45	16.7442
1257.23	15.5929
1260.02	19.0147
1262.8	15.0148
1265.59	15.6624
1268.37	18.8204
1271.15	21.8703
1273.93	28.7209
1276.71	38.9741
1279.48	57.9576
1282.26	84.3919
1285.04	137.902
1287.81	199.04
1290.58	265.549
1293.36	296.613
1296.13	278.205
1298.9	258.618
1301.67	215.631
1304.44	176.503
1307.21	135.031
1309.98	125.078
1312.74	99.9725
1315.51	87.4935
1318.27	74.7586
1321.03	67.7442
1323.8	64.7281
1326.56	65.0415
1329.32	68.8541
1332.08	66.3041
1334.83	73.1377
1337.59	61.4537
1340.35	80.13
1343.1	90.1181
1345.86	94.18
1348.61	115.534
1351.36	114.269
1354.11	126.271
1356.86	148.537
1359.61	157.854
1362.36	171.145
1365.11	172.259
1367.86	165.089
1370.6	154.849
1373.35	150.88
1376.09	138.25
1378.83	165.613
1381.57	199.274
1384.31	238.026
1387.05	244.023
1389.79	229.82
1392.53	197.48
1395.27	142.092
1398	92.0379
1400.74	63.449
1403.47	35.7884
1406.2	21.3186
1408.94	18.8169
1411.67	29.622
1414.4	26.4535
1417.12	20.8644
1419.85	22.8451
1422.58	32.5846
1425.31	36.5796
1428.03	47.3918
1430.75	65.7154
1433.48	82.9166
1436.2	117.849
1438.92	173.979
1441.64	247.212
1444.36	316.321
1447.08	380.913
1449.79	441.905
1452.51	477.813
1455.23	479.825
1457.94	448.867
1460.66	384.446
1463.37	324.518
1466.08	252.104
1468.79	169.004
1471.5	128.395
1474.21	91.9612
1476.92	65.9113
1479.62	63.4865
1482.33	47.6461
1485.03	32.6923
1487.74	37.7797
1490.44	29.0485
1493.14	15.1158
1495.84	17.2723
1498.54	15.7199
1501.24	18.8331
1503.94	19.9653
1506.63	18.6617
1509.33	6.46638
1512.03	11.6909
1514.72	11.5933
1517.41	8.98929
1520.11	12.877
1522.8	1.89288
1525.49	9.03098
1528.18	6.44901
1530.87	4.06791
1533.55	3.78459
1536.24	5.93085
1538.93	2.42425
1541.61	3.99995
1544.29	15.95
1546.98	6.4285
1549.66	1.46927
1552.34	2.58054
1555.02	2.39955
1557.7	12.8665
1560.38	5.37696
1563.05	5.0169
1565.73	10.9671
1568.4	4.8136
1571.08	5.76768
1573.75	13.2429
1576.42	12.0738
1579.09	7.0671
1581.77	8.1378
1584.43	15.8459
1587.1	7.41113
1589.77	9.61075
1592.44	10.9963
1595.1	24.8529
1597.77	19.1036
1600.43	12.7678
1603.09	12.3663
1605.76	20.5001
1608.42	6.76548
1611.08	21.3334
1613.74	15.606
1616.39	16.4048
1619.05	8.90113
1621.71	13.6952
1624.36	12.2144
1627.02	9.44656
1629.67	11.8978
1632.32	16.1665
1634.97	14.7252
1637.62	10.0589
1640.27	19.8244
1642.92	20.7571
1645.57	23.9598
1648.22	10.3603
1650.86	25.2668
1653.51	31.0951
1656.15	24.3311
1658.79	23.1108
1661.44	28.3291
1664.08	27.5892
1666.72	22.3484
1669.36	21.2911
1671.99	27.0754
1674.63	20.3745
1677.27	33.3858
1679.9	11.8744
1682.54	12.4235
1685.17	16.5761
1687.81	8.90125
1690.44	17.9792
1693.07	9.97769
1695.7	13.2139
1698.33	13.7012
1700.96	14.723
1703.58	12.4086
1706.21	18.888
1708.83	18.4307
1711.46	14.0819
1714.08	16.0981
1716.7	11.1371
1719.32	30.0399
1721.94	29.1711
1724.56	21.6355
1727.18	35.05
1729.8	38.0099
1732.42	39.9494
1735.03	39.3258
1737.65	50.5378
1740.26	57.758
1742.88	88.1634
1745.49	100.434
1748.1	122.331
1750.71	147.28
1753.32	160.155
1755.93	184.686
1758.53	189.663
1761.14	213.583
1763.75	236.99
1766.35	259.131
1768.96	269.174
1771.56	261.395
1774.16	248.402
1776.76	216.798
1779.36	187.155
1781.96	150.975
1784.56	112.136
1787.16	90.404
1789.75	69.3371
1792.35	38.8376
1794.94	47.2315
1797.54	30.8156
1800.13	33.9683
1802.72	23.1396
1805.31	25.7212
1807.9	19.0133
1810.49	21.3078
1813.08	25.4022
1815.67	10.777
1818.25	10.5193
1820.84	20.0042
1823.42	15.562
1826.01	16.2248
1828.59	13.5172
1831.17	14.0533
1833.75	5.66267
1836.33	18.6876
1838.91	6.86928
1841.49	10.7755
1844.07	10.8258
1846.64	16.1836
1849.22	9.84498
1851.79	11.1909
1854.36	22.4793
1856.94	8.34843
1859.51	2.94339
1862.08	-2.73369
1864.65	-7.78787
1867.22	-6.92348
1869.79	-6.11881
1872.35	3.90472
1874.92	2.36736
1877.49	-9.03706
1880.05	-5.48399
1882.61	-0.558933
1885.18	4.91712
1887.74	7.96868
1890.3	-3.60797
1892.86	8.63849
1895.42	3.63108
1897.97	10.1091
1900.53	16.7998
1903.09	10.7844
1905.64	7.56875
1908.2	11.1268
1910.75	1.20756
1913.3	12.7044
1915.86	6.74203
1918.41	6.73505
1920.96	3.35367
1923.5	7.25343
1926.05	5.71574
1928.6	12.6299
1931.15	3.69094
1933.69	2.59049
1936.24	2.91403
1938.78	-6.73857
1941.32	-2.61964
1943.86	4.62087
1946.4	4.26946
1948.94	0.823056
1951.48	4.41537
1954.02	0.616019
1956.56	4.43974
1959.09	5.90458
1961.63	-14.9463
1964.16	2.85911
1966.7	-3.65656
1969.23	2.82087
1971.76	-0.0225448
1974.29	-4.34228
1976.82	-11.7288
1979.35	-7.69996
1981.88	-4.10377
1984.41	-3.33187
1986.93	1.46708
1989.46	-0.643828
1991.98	1.71178
1994.51	0.870721
1997.03	1.73655
1999.55	6.24823
2002.07	-2.13797
2004.59	-1.25873
2007.11	-0.735137
2009.63	-0.132622
2012.15	4.05357
2014.66	3.68718
2017.18	1.71234
2019.69	3.35589
2022.21	4.41083
2024.72	5.88959
2027.23	5.88802
2029.75	3.10234
2032.26	2.36073
2034.77	10.1491
2037.27	1.08652
2039.78	4.07528
2042.29	1.90001
2044.79	2.16525
2047.3	9.03053
2049.8	3.85641
2052.31	10.7834
2054.81	8.81387
2057.31	4.16807
2059.81	6.40082
2062.31	6.49166
2064.81	10.2273
2067.31	10.9528
2069.8	-0.377397
2072.3	7.37161
2074.79	-3.92726
2077.29	-3.64817
2079.78	0.934575
2082.27	1.43033
2084.77	-1.95035
2087.26	-4.4789
2089.75	6.26189
2092.24	0.032412
2094.72	6.58728
2097.21	-0.822208
2099.7	-4.83571
2102.18	-2.51681
2104.67	-6.93785
2107.15	-4.30401
2109.63	-10.3334
2112.11	-10.2612
2114.6	4.65871
2117.08	-2.66728
2119.56	-1.97629
2122.03	-6.60816
2124.51	-2.71458
2126.99	3.33875
2129.46	-5.85077
2131.94	-1.72587
2134.41	3.60655
2136.89	-0.932269
2139.36	-0.295986
2141.83	14.4916
2144.3	3.03604
2146.77	5.9628
2149.24	1.81766
2151.71	8.6504
2154.17	5.17027
2156.64	3.67681
2159.1	-0.58259
2161.57	0.132842
2164.03	3.66851
2166.49	4.04705
2168.96	5.29497
2171.42	11.8698
2173.88	10.148
2176.34	6.73285
2178.79	0.699958
2181.25	9.00792
2183.71	7.85595
2186.16	13.8683
2188.62	8.17106
2191.07	7.56712
2193.53	12.5358
2195.98	15.1821
2198.43	10.4918
2200.88	10.0528
2203.33	4.25748
2205.78	12.0561
2208.23	2.96462
2210.67	1.22623
2213.12	-1.59329
2215.56	2.25355
2218.01	4.81566
2220.45	4.64477
2222.89	6.7972
2225.33	-1.97167
2227.78	9.12441
2230.22	-2.86519
2232.66	7.69183
2235.09	2.56849
2237.53	-2.67452
2239.97	3.11818
2242.4	-5.88081
2244.84	-0.110746
2247.27	-3.19878
2249.7	2.34714
2252.14	3.26038
2254.57	0.584616
2257	-4.94616
2259.43	-1.73656
2261.86	9.17212
2264.28	3.89322
2266.71	-4.92103
2269.14	0.782313
2271.56	-4.10135
2273.99	-2.67585
2276.41	6.54674
2278.83	2.9235
2281.26	3.50619
2283.67	2.39334
2286.1	-2.74201
2288.52	2.76632
2290.93	-0.164319
2293.35	-2.43511
2295.77	4.39979
2298.18	0.344804
2300.6	0.424702
2303.01	5.62657
2305.43	3.06012
2307.84	8.66366
2310.25	4.18324
2312.66	2.73563
2315.07	2.27041
2317.48	4.49374
2319.89	5.70901
2322.29	12.4052
2324.7	1.59701
2327.11	2.08105
2329.51	-2.08793
2331.91	13.5353
2334.32	11.2001
2336.72	3.74866
2339.12	2.90679
2341.52	8.19248
2343.92	6.21141
2346.32	4.71073
2348.72	0.22757
2351.11	-0.378843
2353.51	4.03736
2355.91	1.62321
2358.3	-1.09118
2360.69	10.0275
2363.09	1.77733
2365.48	12.763
2367.87	14.5473
2370.26	12.3514
2372.65	5.42962
2375.04	12.1404
2377.42	4.5749
2379.81	5.04959
2382.2	11.0982
2384.58	8.35746
2386.97	10.8181
2389.35	15.3913
2391.73	12.1512
2394.11	10.1555
2396.5	19.0184
2398.87	16.5775
2401.25	15.5065
2403.63	15.3342
2406.01	17.8112
2408.39	14.4852
2410.76	20.6196
2413.14	18.1266
2415.51	16.9869
2417.89	14.4108
2420.26	17.6169
2422.63	16.3812
2425	14.702
2427.37	1.84363
2429.74	10.3698
2432.11	12.0516
2434.47	18.2358
2436.84	13.0495
2439.21	11.1647
2441.57	15.6717
2443.93	22.8792
2446.3	12.3566
2448.66	8.92103
2451.02	6.45619
2453.38	10.3025
2455.74	12.0268
2458.1	22.4963
2460.46	9.44906
2462.82	10.3035
2465.17	13.5294
2467.53	5.63852
2469.88	17.9282
2472.24	6.91056
2474.59	21.3813
2476.94	12.8059
2479.29	17.5484
2481.64	17.3626
2483.99	5.72278
2486.34	18.542
2488.69	17.4028
2491.04	12.8402
2493.38	19.9517
2495.73	17.0729
2498.08	16.9783
2500.42	15.2235
2502.76	22.8054
2505.11	12.445
2507.45	28.004
2509.79	23.2725
2512.13	28.2245
2514.47	21.5362
2516.8	25.2809
2519.14	24.9085
2521.48	25.7874
2523.81	22.794
2526.15	17.7137
2528.48	21.5066
2530.81	31.0629
2533.15	26.9834
2535.48	20.9783
2537.81	26.8303
2540.14	22.7082
2542.47	22.3181
2544.8	17.842
2547.12	25.4803
2549.45	31.1696
2551.77	24.1357
2554.1	30.9917
2556.42	31.6494
2558.75	30.148
2561.07	28.9826
2563.39	35.5872
2565.71	33.5607
2568.03	39.1464
2570.35	38.129
2572.67	25.9758
2574.99	36.5449
2577.3	40.1288
2579.62	34.4385
2581.93	36.8254
2584.25	29.8235
2586.56	38.4581
2588.87	38.5288
2591.19	29.6961
2593.5	37.7311
2595.81	43.9054
2598.11	38.7475
2600.42	36.9927
2602.73	34.7536
2605.04	45.9727
2607.34	38.4623
2609.65	32.8539
2611.95	34.7696
2614.26	39.4846
2616.56	31.3947
2618.86	35.5613
2621.16	31.277
2623.46	35.2199
2625.76	33.4293
2628.06	35.1208
2630.36	31.2633
2632.65	31.0047
2634.95	35.1827
2637.25	30.0396
2639.54	48.0584
2641.83	34.8031
2644.13	38.4195
2646.42	44.9908
2648.71	41.3944
2651	36.3033
2653.29	41.9892
2655.58	48.7829
2657.87	45.2649
2660.15	40.838
2662.44	42.3806
2664.72	51.1446
2667.01	52.7378
2669.29	47.0093
2671.58	48.308
2673.86	50.7865
2676.14	51.5923
2678.42	43.1123
2680.7	48.0576
2682.98	47.9359
2685.26	31.6142
2687.54	34.972
2689.81	37.7039
2692.09	40.6173
2694.36	32.0723
2696.64	31.7327
2698.91	40.1651
2701.18	33.2726
2703.45	34.5926
2705.72	32.4464
2707.99	29.1222
2710.26	31.9274
2712.53	37.5533
2714.8	34.9328
2717.07	37.7016
2719.33	37.3877
2721.6	44.586
2723.86	49.7915
2726.13	59.6194
2728.39	73.268
2730.65	81.5928
2732.91	93.572
2735.17	108.549
2737.43	116.825
2739.69	128.713
2741.95	129.515
2744.21	121.273
2746.46	124.9
2748.72	114.873
2750.97	108.594
2753.23	105.013
2755.48	94.3061
2757.73	84.0366
2759.98	77.6294
2762.24	71.5177
2764.49	62.6626
2766.73	59.0972
2768.98	53.0147
2771.23	39.7645
2773.48	37.2978
2775.72	35.2355
2777.97	31.4729
2780.21	27.7053
2782.46	24.6983
2784.7	18.1297
2786.94	17.4557
2789.18	18.6456
2791.42	14.7399
2793.66	14.1215
2795.9	11.1168
2798.14	9.40246
2800.38	7.24482
2802.61	7.87615
2804.85	6.33298
2807.08	0.887868
2809.32	1.19858
2811.55	2.17267
2813.78	0.0522418
2816.02	-1.90775
2818.25	-0.15933
2820.48	-0.891793
2822.71	2.07983
2824.94	0.0864929
2827.16	2.55947
2829.39	1.78991
2831.61	4.79042
2833.84	4.09976
2836.06	11.2724
2838.29	13.6025
2840.51	19.662
2842.73	27.1461
2844.96	42.4701
2847.18	49.1261
2849.4	53.4785
2851.61	61.4987
2853.83	65.1961
2856.05	70.2712
2858.27	75.7434
2860.48	90.5801
2862.7	111.628
2864.91	139.65
2867.13	180.907
2869.34	236.851
2871.55	308.679
2873.76	376.925
2875.97	447.211
2878.18	500.354
2880.39	530.014
2882.6	536.147
2884.81	527.316
2887.01	501.011
2889.22	475.26
2891.42	446.21
2893.63	429.063
2895.83	420.818
2898.03	424.428
2900.23	421.197
2902.43	426.989
2904.63	433.395
2906.83	443.105
2909.03	441.319
2911.09	445.332
2913.31	451.785
2915.54	476.016
2917.76	477.743
2919.99	496.224
2922.21	538.002
2924.43	576.421
2926.65	634.256
2928.87	731.989
2931.09	880.62
2933.31	1083.64
2935.53	1422.29
2937.75	1859.07
2939.97	2380.23
2942.18	2861.13
2944.4	3237.39
2946.61	3320.96
2948.83	3209.54
2951.04	2879.94
2953.25	2497.25
2955.47	2085.31
2957.68	1732.46
2959.89	1440.44
2962.1	1193.76
2964.31	1028.98
2966.52	906.526
2968.73	805.285
2970.93	727.737
2973.14	674.369
2975.35	624.458
2977.55	597.802
2979.76	579.175
2981.96	574.644
2984.16	603.568
2986.37	657.819
2988.57	785.119
2990.77	917.904
2992.97	1090.45
2995.17	1259.18
2997.37	1388.85
2999.57	1465.25
3001.77	1506.46
3003.96	1473.73
3006.16	1409.38
3008.36	1329.67
3010.55	1210.23
3012.75	1102.05
3014.94	967.662
3017.13	840.187
3019.32	722.894
3021.52	614.559
3023.71	507.19
3025.9	416.576
3028.09	338.651
3030.28	282.796
3032.46	232.942
3034.65	181.812
3036.84	149.015
3039.02	127.853
3041.21	107.183
3043.39	85.0175
3045.58	72.4751
3047.76	62.6408
3049.94	52.2065
3052.13	49.7152
3054.31	41.3209
3056.49	33.6582
3058.67	30.4206
3060.85	25.6354
3063.03	19.5879
3065.2	21.0172
3067.38	16.834
3069.56	18.977
3071.73	10.9187
3073.91	5.53732
3076.08	10.108
3078.26	10.0426
3080.43	8.33687
3082.6	7.2867
3084.77	-1.97187
3086.95	6.31338
3089.12	0.405992
3091.29	3.303
3093.46	5.11747
3095.62	-7.26465
3097.79	-3.59512
3099.96	1.6999
3102.12	-2.90624
3104.29	-0.816187
3106.45	-8.26267
3108.62	-4.31424
3110.78	-6.51124
3112.95	-0.6654
3115.11	-3.6516
3117.27	0.704084
3119.43	-3.27361
3121.59	8.61984
3123.75	-7.57479
3125.91	-1.94567
3128.07	-5.65676
3130.22	-2.22101
3132.38	1.27469
3134.54	-0.574189
3136.69	-2.13741
3138.85	-3.294
3141	2.91574
3143.16	-1.61599
3145.31	2.04053
3147.46	4.38356
3149.61	1.95528
3151.76	2.54754
3153.91	2.33989
3156.06	6.22261
3158.21	8.30516
3160.36	0.414876
3162.51	7.77203
3164.65	10.2059
3166.8	15.0275
3168.94	8.82957
3171.09	6.85712
3173.23	9.11983
3175.38	10.8788
3177.52	10.3311
3179.66	8.5739
3181.8	6.9701
3183.94	9.96857
3186.08	15.0358
3188.22	15.5525
3190.36	12.0286
3192.5	19.1932
3194.63	19.721
3196.77	23.2242
3198.91	22.3094
3201.04	22.3232
3203.18	29.6687
3205.31	22.4907
3207.44	20.0733
3209.58	26.6801
3211.71	32.0722
3213.84	23.8171
3215.97	25.6494
3218.1	27.2258
3220.23	35.7204
3222.36	24.4544
3224.49	28.7936
3226.61	25.8333
3228.74	26.3398
3230.87	23.881
3232.99	22.492
3235.11	23.7133
3237.24	17.1364
3239.36	19.3608
3241.48	17.0685
3243.61	21.4662
3245.73	21.0562
3247.85	13.454
3249.97	14.6821
3252.09	11.1026
3254.2	7.80229
3256.32	14.1604
3258.44	7.58225
3260.56	13.8338
3262.67	11.5516
3264.79	8.28576
3266.9	7.22092
3269.02	8.43571
3271.13	12.434
3273.24	6.15426
3275.35	1.45479
3277.46	6.01177
3279.57	7.04902
3281.68	-1.65102
3283.79	-0.423243
3285.9	0.125457
3288.01	0.125907
3290.12	-3.56472
3292.22	1.33716
3294.33	4.10535
3296.43	-2.31716
3298.54	2.15255
3300.64	4.72186
3302.75	-2.27815
3304.85	0.395432
3306.95	-3.64071
3309.05	-0.461657
3311.15	2.66161
3313.25	-2.45962
3315.35	3.49521
3317.45	3.96926
3319.55	2.66198
3321.65	1.22481
3323.74	2.67033
3325.84	0.700762
3327.93	-1.77585
3330.03	0.796897
3332.12	-0.447537
3334.21	4.77078
3336.31	1.28111
3338.4	2.46937
3340.49	-2.53193
3342.58	5.32025
3344.67	1.04758
3346.76	-1.68496
3348.85	-5.48092
3350.94	-10.0198
3353.02	1.98156
3355.11	3.75855
3357.2	4.85284
3359.28	6.4384
3361.37	-4.04571
3363.45	2.29571
3365.53	1.47882
3367.62	5.35646
3369.7	-1.43479
3371.78	1.56739
3373.86	-1.30532
3375.94	4.63839
3378.02	0.876236
3380.1	-0.911826
3382.18	-0.379485
3384.25	1.37482
3386.33	-2.36881
3388.41	2.82856
3390.48	2.56161
3392.56	-0.0155693
3394.63	1.89617
3396.71	3.9871
3398.78	0.601668
3400.85	4.73768
3402.92	-0.513745
3404.99	-8.13746
3407.06	-4.8692
3409.13	0.901664
3411.2	1.89691
3413.27	4.51385
3415.34	0.423663
3417.4	-2.55472
3419.47	2.26783
3421.54	-1.93009
3423.6	4.04372
3425.67	-4.30308
3427.73	1.72159
3429.79	1.68693
3431.86	-3.69664
3433.92	-5.43008
3435.98	-2.1885
3438.04	1.51932
3440.1	2.96377
3442.16	-3.94592
3444.22	-1.91245
3446.27	-2.87487
3448.33	3.18057
3450.39	1.7159
3452.44	1.64828
3454.5	1.31216
3456.55	-4.59606
3458.61	-4.64276
3460.66	-0.610369
3462.71	-5.71781
3464.77	-2.72807
3466.82	-5.52616
3468.87	-4.67053
3470.92	1.39911
3472.97	-0.376389
3475.02	-2.6898
3477.06	-5.22727
3479.11	1.59239
3481.16	6.28937
3483.2	1.27143
3485.25	0.517542
3487.3	0.330499
3489.34	1.41021
3491.38	0.55756
3493.43	3.00122
3495.47	0.195501
3497.51	0.767366
3499.55	3.61941
