200.057	115.108
203.219	131.909
206.378	131.278
209.539	110.498
212.696	108.374
215.854	86.521
219.009	70.5772
222.165	58.5631
225.318	46.7459
228.472	46.7982
231.622	45.6963
234.774	48.9707
237.923	40.5564
241.07	41.7679
244.217	23.3695
247.364	24.1698
250.508	11.3878
253.652	7.42258
256.794	3.58588
259.937	1.34254
263.077	-8.84029
266.216	-7.82426
269.354	-0.838467
272.491	-1.55927
275.626	9.19757
278.761	20.6263
281.895	31.7641
285.027	46.4991
288.159	56.6499
291.287	82.4614
294.417	117.342
297.545	143.943
300.672	167.199
303.799	195.094
306.922	196.754
310.046	194.268
313.169	171.607
316.289	148.633
319.41	125.858
322.528	97.0014
325.647	78.289
328.764	63.6127
331.879	64.9913
334.993	53.5115
338.107	39.539
341.219	46.5693
344.332	46.9579
347.441	37.1095
350.549	40.7173
353.659	50.4278
356.765	36.1676
359.87	33.2938
362.975	40.3923
366.078	27.3168
369.18	42.4471
372.281	53.3656
375.383	62.9708
378.482	81.6473
381.58	112.312
384.675	165.845
387.771	216.065
390.865	268.565
393.959	299.905
397.052	308.001
400.144	291.929
403.234	276.79
406.322	256.558
409.411	225.948
412.498	201.066
415.583	156.709
418.668	117.38
421.75	84.5346
424.834	72.2471
427.916	52.3859
430.996	36.6652
434.074	30.7599
437.153	32.7037
440.229	13.8785
443.306	16.9311
446.381	8.51495
449.454	6.38316
452.526	5.71684
455.599	-10.7425
458.669	-1.70607
461.738	-3.9902
464.806	3.72707
467.873	7.05384
470.939	-5.69861
474.004	5.8147
477.067	-10.1113
480.13	5.82209
483.192	-3.37109
486.253	10.5169
489.313	5.54529
492.369	21.221
495.427	29.6048
498.484	40.4365
501.54	49.509
504.592	61.1287
507.646	69.3969
510.698	72.3815
513.748	46.8284
516.799	39.6763
519.846	20.7975
522.895	15.9094
525.94	7.81811
528.985	1.42288
532.03	0.407234
535.073	-2.16889
538.114	-1.72182
541.157	-5.40647
544.196	-2.19742
547.234	4.11311
550.272	2.95484
553.308	-4.92414
556.344	3.18756
559.378	4.51571
562.411	7.82824
565.444	9.98425
568.475	1.3765
571.505	15.434
574.535	8.2656
577.563	15.1435
580.588	3.82806
583.615	7.37722
586.64	1.65208
589.662	0.997721
592.686	2.58828
595.708	0.726831
598.727	6.58477
601.747	6.20684
604.765	-5.73963
607.783	3.25086
610.798	-6.03567
613.813	-10.3647
616.828	3.12408
619.84	-0.835892
622.851	7.27829
625.862	6.73569
628.873	11.4443
631.881	21.0107
634.889	19.0567
637.895	16.0031
640.9	1.1764
643.904	10.787
646.908	24.4577
649.91	23.1944
652.909	22.0299
655.91	30.2075
658.909	31.1492
661.907	31.2102
664.903	24.7038
667.899	43.9192
670.895	41.9759
673.887	34.9572
676.88	33.4316
679.871	37.7985
682.862	38.5278
685.851	45.4799
688.84	42.3543
691.827	38.6261
694.812	45.7855
697.799	49.4472
700.782	47.3261
703.765	56.9492
706.746	63.5741
709.727	64.6337
712.706	58.1361
715.685	46.1472
718.663	33.6853
721.639	44.4017
724.615	39.767
727.59	45.4918
730.563	53.3343
733.536	67.5082
736.506	88.7829
739.477	84.1406
742.446	81.1289
745.413	71.9815
748.381	69.8411
751.346	68.5845
754.312	56.4637
757.275	51.0683
760.239	40.4418
763.2	37.457
766.16	37.0431
769.121	25.5654
772.079	21.3197
775.036	8.20403
777.992	11.4286
780.947	-1.31366
783.901	-10.0062
786.855	-4.9899
789.807	-0.0569044
792.758	-10.3891
795.709	-11.4395
798.658	-5.90227
801.606	0.606102
804.554	2.87051
807.498	-7.6644
810.444	-5.22078
813.388	6.34117
816.33	6.26985
819.273	2.48184
822.212	5.1625
825.153	16.0495
828.091	7.59668
831.027	14.4677
833.965	18.1775
836.9	24.412
839.834	28.8181
842.769	45.0223
845.701	61.804
848.632	76.216
851.562	120.133
854.491	149.155
857.419	226.581
860.347	360.181
863.273	591.2
866.196	846.059
869.121	1047.2
872.044	1098.03
874.966	1005.33
877.886	775.262
880.807	509.274
883.726	314.685
886.643	197.964
889.561	148.421
892.475	101.872
895.389	87.6586
898.304	93.5055
901.216	74.3048
904.127	83.0607
907.037	83.4321
909.948	87.6262
912.856	95.4169
915.764	112.098
918.67	133.091
921.575	149.858
924.479	131.919
927.381	116.506
930.284	94.0387
933.185	73.2379
936.086	54.0275
938.983	41.7156
941.882	31.0034
944.78	34.0693
947.675	29.9459
950.571	16.5055
953.464	31.2645
956.358	14.2257
959.249	10.8693
962.139	15.0648
965.028	1.1081
967.919	0.222849
970.806	1.90285
973.693	-8.85862
976.578	3.96356
979.463	3.58675
982.346	-1.85136
985.229	-5.20483
988.111	-4.82622
990.992	5.40698
993.87	5.53495
996.749	10.319
999.627	8.88072
1002.5	6.6144
1005.38	2.72823
1008.25	7.10063
1011.13	8.64993
1014	30.261
1016.87	19.6238
1019.74	41.9345
1022.61	54.8732
1025.48	82.4108
1028.35	116.513
1031.21	171.728
1034.08	245.202
1036.94	294.437
1039.8	331.312
1042.67	329.516
1045.53	298.239
1048.39	239.751
1051.25	172.039
1054.1	142.433
1056.96	96.2749
1059.82	82.7407
1062.67	52.7609
1065.53	61.6386
1068.38	53.9766
1071.23	29.1849
1074.08	32.7466
1076.93	60.0001
1079.78	63.4427
1082.63	92.4425
1085.48	109.48
1088.32	136.319
1091.17	166.335
1094.01	180.93
1096.85	174.098
1099.7	154.26
1102.54	139.187
1105.38	127.855
1108.21	115.746
1111.05	124.713
1113.89	134.722
1116.72	172.564
1119.56	220.95
1122.39	282.315
1125.23	312.114
1128.06	319.249
1130.89	297.054
1133.72	255.065
1136.55	209.158
1139.37	171.588
1142.2	145.369
1145.03	96.4216
1147.85	65.462
1150.67	52.3395
1153.5	33.2501
1156.32	37.7323
1159.14	35.8238
1161.96	41.3459
1164.78	27.6365
1167.6	15.6592
1170.41	25.3966
1173.23	36.4406
1176.04	40.048
1178.86	55.5407
1181.67	47.3358
1184.48	44.1911
1187.29	37.4379
1190.1	38.1001
1192.91	39.4961
1195.72	34.5632
1198.52	37.4203
1201.33	42.9204
1204.13	34.1262
1206.94	39.1791
1209.74	64.0562
1212.54	60.7891
1215.34	71.6921
1218.14	64.1073
1220.94	73.3501
1223.74	59.7511
1226.54	48.8682
1229.33	50.2762
1232.13	39.1796
1234.92	40.3769
1237.71	32.6196
1240.5	31.4936
1243.3	36.5452
1246.09	31.5991
1248.87	43.365
1251.66	47.6048
1254.45	45.081
1257.23	27.8258
1260.02	43.6225
1262.8	32.7115
1265.59	50.0516
1268.37	49.0956
1271.15	63.9162
1273.93	66.2512
1276.71	89.4008
1279.48	107.258
1282.26	140.763
1285.04	203.034
1287.81	255.8
1290.58	307.011
1293.36	337.902
1296.13	314.038
1298.9	279.923
1301.67	229.548
1304.44	189.723
1307.21	143.923
1309.98	125.183
1312.74	112.065
1315.51	101.182
1318.27	84.8277
1321.03	83.5853
1323.8	82.4955
1326.56	74.7484
1329.32	90.0638
1332.08	88.6464
1334.83	88.3076
1337.59	83.5191
1340.35	83.4073
1343.1	93.8295
1345.86	109.529
1348.61	122.033
1351.36	136.081
1354.11	152.261
1356.86	166.413
1359.61	184.354
1362.36	200.943
1365.11	199.201
1367.86	202.207
1370.6	194.013
1373.35	180.148
1376.09	180.484
1378.83	201.097
1381.57	225.133
1384.31	258.171
1387.05	278.516
1389.79	265.915
1392.53	240.191
1395.27	186.157
1398	133.114
1400.74	95.8497
1403.47	68.4501
1406.2	54.8148
1408.94	63.0948
1411.67	43.0494
1414.4	57.5709
1417.12	56.0503
1419.85	69.6596
1422.58	53.0118
1425.31	46.6403
1428.03	61.6222
1430.75	75.5093
1433.48	96.0956
1436.2	133.76
1438.92	175.596
1441.64	233.137
1444.36	302.064
1447.08	353.995
1449.79	422.749
1452.51	450.987
1455.23	452.642
1457.94	427.487
1460.66	378.809
1463.37	304.721
1466.08	252.568
1468.79	178.562
1471.5	140.806
1474.21	115.983
1476.92	85.6816
1479.62	67.3535
1482.33	49.2157
1485.03	57.3332
1487.74	48.6068
1490.44	51.3362
1493.14	49.5999
1495.84	44.3934
1498.54	49.889
1501.24	48.0234
1503.94	50.6945
1506.63	40.8385
1509.33	31.8292
1512.03	29.2438
1514.72	38.7299
1517.41	32.5295
1520.11	22.1976
1522.8	27.7361
1525.49	42.1717
1528.18	27.8269
1530.87	20.3477
1533.55	40.0954
1536.24	48.8104
1538.93	20.3642
1541.61	33.0218
1544.29	28.1695
1546.98	46.8828
1549.66	30.4171
1552.34	27.0104
1555.02	40.4743
1557.7	33.3467
1560.38	34.0098
1563.05	34.7848
1565.73	23.8449
1568.4	32.2385
1571.08	29.8289
1573.75	29.3017
1576.42	41.2885
1579.09	24.8999
1581.77	35.1754
1584.43	30.0192
1587.1	35.69
1589.77	33.5163
1592.44	46.7403
1595.1	47.5076
1597.77	59.8269
1600.43	45.3365
1603.09	62.7738
1605.76	79.3977
1608.42	84.2884
1611.08	124.981
1613.74	129.049
1616.39	120.976
1619.05	102.901
1621.71	79.9772
1624.36	67.8765
1627.02	42.0724
1629.67	29.4837
1632.32	31.9051
1634.97	25.3855
1637.62	36.7462
1640.27	30.0501
1642.92	21.6043
1645.57	30.1862
1648.22	29.7999
1650.86	37.094
1653.51	40.4721
1656.15	34.48
1658.79	42.6592
1661.44	42.4986
1664.08	37.9646
1666.72	38.6074
1669.36	28.675
1671.99	31.6737
1674.63	38.3039
1677.27	33.2769
1679.9	28.2296
1682.54	13.6586
1685.17	34.7966
1687.81	33.6952
1690.44	33.6627
1693.07	22.4778
1695.7	34.1668
1698.33	29.1007
1700.96	29.9289
1703.58	27.737
1706.21	20.3565
1708.83	27.773
1711.46	33.9456
1714.08	34.5478
1716.7	52.3511
1719.32	52.0979
1721.94	70.4093
1724.56	85.608
1727.18	90.6401
1729.8	91.6843
1732.42	92.9019
1735.03	78.4566
1737.65	64.4557
1740.26	66.9817
1742.88	81.079
1745.49	89.5264
1748.1	99.9413
1750.71	113.58
1753.32	143.616
1755.93	139.548
1758.53	163.648
1761.14	184.135
1763.75	197.472
1766.35	225.44
1768.96	236.227
1771.56	239.469
1774.16	242.84
1776.76	197.296
1779.36	173.222
1781.96	134.167
1784.56	112.424
1787.16	86.7239
1789.75	67.1687
1792.35	51.8953
1794.94	40.4825
1797.54	37.5794
1800.13	30.8721
1802.72	33.1921
1805.31	41.1086
1807.9	19.2404
1810.49	13.7996
1813.08	20.8361
1815.67	27.6789
1818.25	17.1307
1820.84	23.1327
1823.42	13.2766
1826.01	19.5143
1828.59	25.9162
1831.17	20.4011
1833.75	16.6601
1836.33	20.3441
1838.91	16.2965
1841.49	15.7427
1844.07	6.29669
1846.64	2.75824
1849.22	12.9401
1851.79	9.30379
1854.36	16.2636
1856.94	11.9429
1859.51	2.23747
1862.08	2.46123
1864.65	2.04533
1867.22	-19.4741
1869.79	-18.8816
1872.35	-15.9185
1874.92	-14.6268
1877.49	1.14273
1880.05	4.82039
1882.61	15.6555
1885.18	15.5128
1887.74	7.64464
1890.3	3.59281
1892.86	2.45419
1895.42	17.3432
1897.97	15.976
1900.53	12.9493
1903.09	20.3418
1905.64	18.0502
1908.2	4.8095
1910.75	7.49693
1913.3	16.2676
1915.86	5.15289
1918.41	5.05112
1920.96	14.5104
1923.5	11.7793
1926.05	2.43622
1928.6	7.55907
1931.15	11.4584
1933.69	-5.43578
1936.24	2.88633
1938.78	7.86756
1941.32	7.10576
1943.86	0.177696
1946.4	9.30728
1948.94	-0.213418
1951.48	4.09768
1954.02	1.67053
1956.56	0.13331
1959.09	1.63584
1961.63	2.996
1964.16	-1.0689
1966.7	-12.9418
1969.23	-7.75845
1971.76	-9.14493
1974.29	-9.97785
1976.82	-7.34697
1979.35	-10.3803
1981.88	-3.93946
1984.41	-6.50437
1986.93	-8.37565
1989.46	1.55965
1991.98	-0.0922645
1994.51	5.94768
1997.03	2.41157
1999.55	-3.05047
2002.07	11.6765
2004.59	0.334269
2007.11	-9.06331
2009.63	-5.04043
2012.15	1.69103
2014.66	6.94212
2017.18	10.9581
2019.69	6.31234
2022.21	-4.21974
2024.72	10.0696
2027.23	9.1761
2029.75	16.8459
2032.26	10.2311
2034.77	8.60837
2037.27	10.4206
2039.78	9.50904
2042.29	6.97329
2044.79	6.04342
2047.3	13.55
2049.8	8.80849
2052.31	17.9811
2054.81	14.5188
2057.31	18.337
2059.81	13.4175
2062.31	10.9948
2064.81	11.1397
2067.31	6.34332
2069.8	5.80806
2072.3	9.17436
2074.79	7.35641
2077.29	7.16355
2079.78	8.37301
2082.27	6.85051
2084.77	1.7598
2087.26	6.58216
2089.75	-3.94823
2092.24	-0.0261718
2094.72	5.83704
2097.21	9.43511
2099.7	-5.26416
2102.18	-0.0922914
2104.67	3.75105
2107.15	-6.85324
2109.63	3.49933
2112.11	-1.93214
2114.6	-3.04295
2117.08	-11.7976
2119.56	1.24318
2122.03	-0.299183
2124.51	12.1003
2126.99	8.86604
2129.46	8.66376
2131.94	10.9444
2134.41	2.60947
2136.89	0.170463
2139.36	8.14569
2141.83	4.8041
2144.3	6.61226
2146.77	16.2073
2149.24	20.2763
2151.71	6.87818
2154.17	17.6658
2156.64	16.3754
2159.1	6.63068
2161.57	2.3548
2164.03	15.8452
2166.49	9.25097
2168.96	23.8222
2171.42	20.6281
2173.88	23.5469
2176.34	11.5383
2178.79	11.8147
2181.25	16.0627
2183.71	28.718
2186.16	18.5344
2188.62	21.1871
2191.07	21.6484
2193.53	19.656
2195.98	24.6992
2198.43	31.5689
2200.88	20.7179
2203.33	13.0398
2205.78	11.4039
2208.23	16.725
2210.67	23.0672
2213.12	16.5405
2215.56	15.8483
2218.01	19.8593
2220.45	16.0035
2222.89	14.6531
2225.33	9.02971
2227.78	11.7111
2230.22	19.6777
2232.66	16.4795
2235.09	22.437
2237.53	19.1749
2239.97	4.46446
2242.4	14.9104
2244.84	11.2869
2247.27	15.676
2249.7	8.93026
2252.14	13.5985
2254.57	17.0789
2257	20.9613
2259.43	13.3006
2261.86	10.5195
2264.28	5.88653
2266.71	13.5452
2269.14	13.661
2271.56	15.8781
2273.99	27.3326
2276.41	7.63576
2278.83	4.7325
2281.26	3.66861
2283.67	16.7413
2286.1	4.99956
2288.52	10.2827
2290.93	16.1625
2293.35	11.3086
2295.77	4.75038
2298.18	17.6363
2300.6	24.6147
2303.01	25.4869
2305.43	19.4549
2307.84	17.305
2310.25	21.1261
2312.66	16.5945
2315.07	13.7867
2317.48	26.019
2319.89	37.304
2322.29	22.8968
2324.7	21.2536
2327.11	29.5754
2329.51	19.6035
2331.91	19.0877
2334.32	24.0966
2336.72	28.2464
2339.12	23.9675
2341.52	21.1067
2343.92	20.1819
2346.32	28.4833
2348.72	29.9029
2351.11	28.5204
2353.51	28.6973
2355.91	23.2076
2358.3	28.5692
2360.69	23.2132
2363.09	35.34
2365.48	26.886
2367.87	29.3878
2370.26	35.2808
2372.65	32.7918
2375.04	37.7363
2377.42	43.5495
2379.81	38.9443
2382.2	34.5056
2384.58	35.8793
2386.97	30.2176
2389.35	38.9158
2391.73	46.8792
2394.11	35.1538
2396.5	38.0278
2398.87	34.0248
2401.25	52.6888
2403.63	48.2692
2406.01	55.9137
2408.39	50.4227
2410.76	59.5811
2413.14	52.6186
2415.51	47.3264
2417.89	52.091
2420.26	51.9081
2422.63	54.0937
2425	53.0292
2427.37	53.9628
2429.74	49.6245
2432.11	55.986
2434.47	61.0997
2436.84	65.042
2439.21	58.1948
2441.57	56.5136
2443.93	61.2338
2446.3	44.7519
2448.66	55.142
2451.02	54.1777
2453.38	55.0049
2455.74	46.9461
2458.1	59.1476
2460.46	48.0838
2462.82	52.7919
2465.17	64.1394
2467.53	60.3828
2469.88	52.7073
2472.24	56.915
2474.59	53.3492
2476.94	58.8765
2479.29	60.5492
2481.64	68.6932
2483.99	75.1345
2486.34	74.9129
2488.69	72.8433
2491.04	58.4519
2493.38	60.5412
2495.73	67.283
2498.08	71.0487
2500.42	76.2353
2502.76	70.6696
2505.11	86.156
2507.45	84.6597
2509.79	88.976
2512.13	85.1425
2514.47	82.5022
2516.8	86.4615
2519.14	77.0716
2521.48	90.0172
2523.81	70.652
2526.15	77.9841
2528.48	91.7661
2530.81	94.5344
2533.15	82.725
2535.48	88.1603
2537.81	82.0988
2540.14	79.808
2542.47	88.1485
2544.8	78.2095
2547.12	98.2029
2549.45	91.0779
2551.77	97.5031
2554.1	93.047
2556.42	93.6069
2558.75	97.1208
2561.07	108.768
2563.39	102.425
2565.71	107.01
2568.03	99.5807
2570.35	97.903
2572.67	107.535
2574.99	105.034
2577.3	101.54
2579.62	108.203
2581.93	100.704
2584.25	112.011
2586.56	112.408
2588.87	108.489
2591.19	112.312
2593.5	114.664
2595.81	105.296
2598.11	111.358
2600.42	114.574
2602.73	124.701
2605.04	112.205
2607.34	107.78
2609.65	112.325
2611.95	116.758
2614.26	114.074
2616.56	115.271
2618.86	114.047
2621.16	116.364
2623.46	119.607
2625.76	119.171
2628.06	113.533
2630.36	112.923
2632.65	118.224
2634.95	109.068
2637.25	130.17
2639.54	125.521
2641.83	131.587
2644.13	117.326
2646.42	116.983
2648.71	123.512
2651	129.08
2653.29	129.798
2655.58	124.893
2657.87	129.972
2660.15	140.202
2662.44	133.808
2664.72	139.595
2667.01	138.613
2669.29	137.707
2671.58	126.304
2673.86	146.347
2676.14	128.259
2678.42	135.18
2680.7	132.167
2682.98	132.571
2685.26	128.629
2687.54	117.944
2689.81	116.653
2692.09	115.667
2694.36	117.525
2696.64	126.261
2698.91	114.385
2701.18	109.164
2703.45	116.485
2705.72	107.451
2707.99	113.456
2710.26	113.537
2712.53	109.808
2714.8	97.3088
2717.07	105.208
2719.33	109.004
2721.6	105.122
2723.86	106.898
2726.13	120.628
2728.39	134.764
2730.65	140.901
2732.91	148.731
2735.17	161.262
2737.43	170.324
2739.69	176.199
2741.95	175.479
2744.21	172.257
2746.46	176.082
2748.72	167.749
2750.97	168.751
2753.23	158.091
2755.48	150.717
2757.73	134.798
2759.98	131.811
2762.24	117.121
2764.49	117.931
2766.73	111.154
2768.98	96.8389
2771.23	81.2937
2773.48	85.4961
2775.72	83.2923
2777.97	77.7993
2780.21	75.4915
2782.46	63.6257
2784.7	60.7301
2786.94	50.5455
2789.18	52.866
2791.42	47.1114
2793.66	45.8536
2795.9	43.3952
2798.14	48.0839
2800.38	43.1911
2802.61	37.1887
2804.85	41.5039
2807.08	34.4404
2809.32	28.3421
2811.55	28.569
2813.78	24.685
2816.02	25.8273
2818.25	21.4879
2820.48	19.7429
2822.71	22.9283
2824.94	16.1068
2827.16	17.7292
2829.39	15.4977
2831.61	14.6453
2833.84	9.83294
2836.06	11.1914
2838.29	9.92437
2840.51	7.57604
2842.73	15.7097
2844.96	14.2734
2847.18	16.3058
2849.4	18.5751
2851.61	18.8882
2853.83	19.8542
2856.05	27.9472
2858.27	31.1732
2860.48	38.4233
2862.7	52.6509
2864.91	78.5651
2867.13	116.236
2869.34	158.858
2871.55	215.076
2873.76	281.25
2875.97	345.697
2878.18	399.093
2880.39	432.305
2882.6	439.782
2884.81	428.609
2887.01	414.789
2889.22	381.088
2891.42	358.955
2893.63	338.514
2895.83	322.334
2898.03	314.097
2900.23	314.314
2902.43	304.977
2904.63	313.776
2906.83	310.268
2909.03	305.512
2911.09	313.516
2913.31	316.445
2915.54	320.828
2917.76	335.738
2919.99	362.474
2922.21	385.338
2924.43	417.314
2926.65	476.398
2928.87	575.893
2931.09	710.762
2933.31	921.119
2935.53	1227.43
2937.75	1651.59
2939.97	2155.19
2942.18	2661.47
2944.4	3074.73
2946.61	3186.51
2948.83	3111.63
2951.04	2776.68
2953.25	2396.51
2955.47	1968.73
2957.68	1607.17
2959.89	1299.47
2962.1	1086.56
2964.31	917.976
2966.52	804.148
2968.73	697.584
2970.93	643.2
2973.14	575.337
2975.35	540.934
2977.55	507.327
2979.76	499.342
2981.96	496.653
2984.16	515.867
2986.37	565.384
2988.57	663.805
2990.77	796.44
2992.97	952.823
2995.17	1155.84
2997.37	1295.46
2999.57	1373.77
3001.77	1423.06
3003.96	1387.28
3006.16	1334.73
3008.36	1248.2
3010.55	1151.11
3012.75	1043.7
3014.94	911.428
3017.13	799.672
3019.32	679.641
3021.52	569.377
3023.71	470.123
3025.9	374.057
3028.09	310.735
3030.28	243.16
3032.46	196.996
3034.65	160.81
3036.84	128.558
3039.02	98.2799
3041.21	83.7366
3043.39	71.5464
3045.58	60.2006
3047.76	49.1031
3049.94	46.7579
3052.13	30.8323
3054.31	31.6592
3056.49	34.7184
3058.67	22.7841
3060.85	21.7652
3063.03	19.4372
3065.2	15.7141
3067.38	26.3949
3069.56	23.3275
3071.73	14.1822
3073.91	24.9291
3076.08	24.6011
3078.26	22.7165
3080.43	31.9788
3082.6	42.101
3084.77	26.5283
3086.95	27.9572
3089.12	11.1702
3091.29	15.4565
3093.46	4.42065
3095.62	-0.994654
3097.79	-0.0587592
3099.96	-0.658646
3102.12	-4.45967
3104.29	-6.55365
3106.45	-1.11557
3108.62	-2.8229
3110.78	4.86507
3112.95	0.0780324
3115.11	-3.36539
3117.27	-9.54824
3119.43	-10.752
3121.59	-10.1352
3123.75	-5.86349
3125.91	1.06167
3128.07	-7.47704
3130.22	1.37779
3132.38	0.41138
3134.54	-11.0151
3136.69	8.1478
3138.85	1.86003
3141	-0.2735
3143.16	0.810851
3145.31	-2.22426
3147.46	0.0545171
3149.61	3.47221
3151.76	3.2445
3153.91	-1.32859
3156.06	8.00366
3158.21	5.37728
3160.36	5.57203
3162.51	-0.997893
3164.65	4.68199
3166.8	5.47009
3168.94	8.38565
3171.09	3.82757
3173.23	5.21466
3175.38	5.05234
3177.52	10.6063
3179.66	9.67593
3181.8	14.7641
3183.94	12.1566
3186.08	15.5553
3188.22	15.9997
3190.36	5.6194
3192.5	13.4381
3194.63	20.0701
3196.77	27.9336
3198.91	23.5615
3201.04	26.2088
3203.18	19.7882
3205.31	18.3824
3207.44	12.435
3209.58	26.2978
3211.71	30.0437
3213.84	29.4925
3215.97	31.6296
3218.1	27.869
3220.23	24.9539
3222.36	35.6793
3224.49	18.8325
3226.61	23.291
3228.74	28.5256
3230.87	23.6463
3232.99	24.1082
3235.11	22.413
3237.24	25.952
3239.36	27.1517
3241.48	10.835
3243.61	17.9263
3245.73	19.164
3247.85	7.45414
3249.97	9.5502
3252.09	8.86306
3254.2	8.0765
3256.32	14.7167
3258.44	10.351
3260.56	8.42314
3262.67	14.1957
3264.79	0.622073
3266.9	6.62831
3269.02	5.21517
3271.13	1.5828
3273.24	-1.52121
3275.35	-1.14167
3277.46	3.49274
3279.57	6.46532
3281.68	2.77218
3283.79	-2.73853
3285.9	5.70953
3288.01	1.80393
3290.12	3.18736
3292.22	-9.01194
3294.33	-2.66337
3296.43	1.85772
3298.54	0.502041
3300.64	-7.13735
3302.75	-2.49126
3304.85	5.63025
3306.95	0.443119
3309.05	-7.13389
3311.15	3.09126
3313.25	-7.61755
3315.35	-6.57603
3317.45	0.310796
3319.55	3.53027
3321.65	9.96183
3323.74	-1.14212
3325.84	1.41346
3327.93	3.39488
3330.03	3.98618
3332.12	3.77022
3334.21	1.42348
3336.31	9.94989
3338.4	-3.59215
3340.49	-5.66566
3342.58	-0.783849
3344.67	1.31698
3346.76	-7.80842
3348.85	-3.65722
3350.94	-3.90042
3353.02	-0.589844
3355.11	-1.77521
3357.2	1.6509
3359.28	-5.03041
3361.37	1.58028
3363.45	3.86842
3365.53	-0.975684
3367.62	-4.714
3369.7	5.86029
3371.78	7.78991
3373.86	-1.38053
3375.94	2.49751
3378.02	6.28253
3380.1	-3.11758
3382.18	4.24097
3384.25	-5.48991
3386.33	6.51965
3388.41	10.7752
3390.48	-3.63968
3392.56	-4.56538
3394.63	5.01522
3396.71	1.54194
3398.78	0.63767
3400.85	-3.64177
3402.92	-10.6725
3404.99	0.751194
3407.06	-5.9053
3409.13	3.44661
3411.2	3.68596
3413.27	0.205879
3415.34	0.395825
3417.4	-2.52856
3419.47	7.10345
3421.54	7.05265
3423.6	5.31789
3425.67	0.318341
3427.73	4.23692
3429.79	-11.6325
3431.86	-3.04168
3433.92	4.82269
3435.98	-2.20051
3438.04	-3.09039
3440.1	-4.2927
3442.16	2.88604
3444.22	2.96898
3446.27	-4.33178
3448.33	-6.18845
3450.39	-1.47884
3452.44	-2.46513
3454.5	-2.37886
3456.55	1.04417
3458.61	0.203436
3460.66	-4.91356
3462.71	-0.548541
3464.77	2.12216
3466.82	-3.14732
3468.87	0.596289
3470.92	-1.60761
3472.97	0.094148
3475.02	4.78619
3477.06	-7.13492
3479.11	1.26547
3481.16	-1.11075
3483.2	1.06142
3485.25	1.80508
3487.3	-3.06464
3489.34	6.70022
3491.38	-0.148872
3493.43	-1.58585
3495.47	-0.979172
3497.51	2.95262
3499.55	10.3675
