200.057	576.108
203.219	586.44
206.378	584.557
209.539	584.949
212.696	581.715
215.854	581.255
219.009	582.961
222.165	585.993
225.318	588.143
228.472	589.274
231.622	585.911
234.774	591.034
237.923	596.165
241.07	593.306
244.217	601.061
247.364	587.988
250.508	592.309
253.652	576.331
256.794	580.311
259.937	576.539
263.077	556.369
266.216	567.91
269.354	555.302
272.491	564.773
275.626	575.768
278.761	585.609
281.895	608.768
285.027	631.92
288.159	644.877
291.287	658.368
294.417	664.928
297.545	677.412
300.672	674.856
303.799	673.993
306.922	680.095
310.046	675.815
313.169	672.319
316.289	659.294
319.41	662.885
322.528	643.001
325.647	643.171
328.764	632.879
331.879	627.317
334.993	614.409
338.107	619.911
341.219	618.888
344.332	611.539
347.441	611.311
350.549	613.217
353.659	609.581
356.765	611.277
359.87	614.045
362.975	624.314
366.078	626.518
369.18	635.409
372.281	645.275
375.383	659.903
378.482	682.44
381.58	721.21
384.675	736.096
387.771	757.551
390.865	774.719
393.959	790.589
397.052	798.762
400.144	796.294
403.234	792.933
406.322	790.445
409.411	773.588
412.498	753.189
415.583	733.008
418.668	704.252
421.75	680.106
424.834	663.854
427.916	647.314
430.996	628.581
434.074	621.581
437.153	620.177
440.229	622.085
443.306	614.337
446.381	606.553
449.454	592.399
452.526	591.481
455.599	600.754
458.669	584.905
461.738	591.414
464.806	592.168
467.873	585.805
470.939	598.803
474.004	592.553
477.067	600.817
480.13	593.972
483.192	602.364
486.253	597.978
489.313	597.083
492.369	609.06
495.427	609.386
498.484	606.591
501.54	611.669
504.592	611.51
507.646	613.937
510.698	619.055
513.748	617.666
516.799	617.206
519.846	610.117
522.895	619.575
525.94	618.316
528.985	613.418
532.03	613.479
535.073	609.638
538.114	612.01
541.157	607.927
544.196	612.343
547.234	619.87
550.272	616.81
553.308	627.206
556.344	627.624
559.378	628.75
562.411	636.488
565.444	643.433
568.475	627.6
571.505	629.979
574.535	642.339
577.563	643.223
580.588	644.369
583.615	645.952
586.64	644.822
589.662	643.259
592.686	635.837
595.708	633.469
598.727	635.329
601.747	635.919
604.765	641.478
607.783	632.617
610.798	633.47
613.813	638.829
616.828	636.984
619.84	649.868
622.851	647.932
625.862	654.67
628.873	651.081
631.881	660.822
634.889	661.87
637.895	665.432
640.9	663.545
643.904	661.076
646.908	677.297
649.91	668.816
652.909	684.173
655.91	681.147
658.909	676.449
661.907	682.943
664.903	686.661
667.899	686.13
670.895	694.723
673.887	695.121
676.88	689.828
679.871	692.249
682.862	693.49
685.851	690.44
688.84	686.371
691.827	685.745
694.812	693.203
697.799	682.957
700.782	697.569
703.765	701.789
706.746	691.368
709.727	682.895
712.706	682.252
715.685	671.949
718.663	664.493
721.639	672.361
724.615	672.014
727.59	677.699
730.563	707.864
733.536	729.85
736.506	740.848
739.477	736.253
742.446	735.646
745.413	713.951
748.381	719.655
751.346	709.9
754.312	706.075
757.275	706.583
760.239	694.378
763.2	697.907
766.16	687.912
769.121	687.91
772.079	678.825
775.036	672.568
777.992	661.037
780.947	665.796
783.901	650.042
786.855	657.141
789.807	645.047
792.758	647.6
795.709	650.176
798.658	649.231
801.606	644.889
804.554	660.806
807.498	646.209
810.444	650.346
813.388	652.505
816.33	655.442
819.273	656.541
822.212	666.016
825.153	658.966
828.091	664.995
831.027	674.421
833.965	684.799
836.9	693.193
839.834	701.476
842.769	727.749
845.701	737.536
848.632	758.059
851.562	809.396
854.491	872.234
857.419	950.981
860.347	1068.15
863.273	1201.57
866.196	1333.15
869.121	1419.37
872.044	1426.23
874.966	1332.64
877.886	1168.37
880.807	1019.58
883.726	909.453
886.643	837.653
889.561	804.042
892.475	780.457
895.389	767.867
898.304	761.288
901.216	759.25
904.127	748.78
907.037	749.164
909.948	757.135
912.856	745.386
915.764	744.188
918.67	741.113
921.575	733.381
924.479	728.974
927.381	720.11
930.284	717.302
933.185	703.532
936.086	715.062
938.983	710.186
941.882	703.938
944.78	702.008
947.675	703.903
950.571	697.305
953.464	692.445
956.358	697.601
959.249	696.911
962.139	685.419
965.028	672.026
967.919	669.493
970.806	680.476
973.693	676.923
976.578	676.835
979.463	675.372
982.346	674.11
985.229	682.272
988.111	671.903
990.992	680.027
993.87	683.692
996.749	684.69
999.627	688.808
1002.5	694.414
1005.38	699.266
1008.25	691.851
1011.13	701.866
1014	715.922
1016.87	723.636
1019.74	736.011
1022.61	755.752
1025.48	787.156
1028.35	797.682
1031.21	831.998
1034.08	874.384
1036.94	908.568
1039.8	930.437
1042.67	935.086
1045.53	929.207
1048.39	888.156
1051.25	859.6
1054.1	825.937
1056.96	793.865
1059.82	771.473
1062.67	750.391
1065.53	738.38
1068.38	736.253
1071.23	743.896
1074.08	753.433
1076.93	754.802
1079.78	788.642
1082.63	813.7
1085.48	837.38
1088.32	851.888
1091.17	873.676
1094.01	877.088
1096.85	871.221
1099.7	861.663
1102.54	846.6
1105.38	833.005
1108.21	830.866
1111.05	843.45
1113.89	854.616
1116.72	895.408
1119.56	937.411
1122.39	978.758
1125.23	1000.68
1128.06	994.724
1130.89	954.144
1133.72	919.713
1136.55	880.461
1139.37	834.864
1142.2	814.136
1145.03	770.554
1147.85	746.792
1150.67	734.691
1153.5	728.602
1156.32	728.809
1159.14	731.407
1161.96	724.014
1164.78	720.015
1167.6	727.198
1170.41	739.142
1173.23	750.373
1176.04	766.427
1178.86	777.4
1181.67	783.964
1184.48	775.62
1187.29	763.426
1190.1	762.153
1192.91	753.768
1195.72	753.071
1198.52	747.28
1201.33	759.578
1204.13	754.242
1206.94	753.732
1209.74	757.712
1212.54	760.717
1215.34	755.071
1218.14	768.732
1220.94	755.633
1223.74	760.248
1226.54	756.172
1229.33	742.636
1232.13	742.523
1234.92	747.393
1237.71	741.09
1240.5	725.759
1243.3	743.126
1246.09	743.254
1248.87	742.243
1251.66	737.39
1254.45	744.373
1257.23	745.716
1260.02	751.277
1262.8	753.277
1265.59	757.045
1268.37	753.431
1271.15	766.132
1273.93	764.633
1276.71	764.84
1279.48	780.433
1282.26	792.109
1285.04	824.108
1287.81	861.228
1290.58	885.283
1293.36	919.95
1296.13	929.505
1298.9	928.798
1301.67	907.781
1304.44	898.475
1307.21	887.681
1309.98	853.183
1312.74	852.911
1315.51	841.586
1318.27	832.86
1321.03	839.606
1323.8	826.543
1326.56	838.8
1329.32	840.543
1332.08	828.333
1334.83	841.657
1337.59	824.245
1340.35	840.999
1343.1	854.535
1345.86	855.721
1348.61	855.358
1351.36	861.217
1354.11	856.448
1356.86	859.981
1359.61	856.744
1362.36	858.279
1365.11	852.899
1367.86	837.665
1370.6	839.379
1373.35	836.763
1376.09	855.243
1378.83	872.876
1381.57	896.192
1384.31	904.476
1387.05	883.672
1389.79	874.832
1392.53	837.552
1395.27	809.893
1398	788.274
1400.74	769.118
1403.47	770.01
1406.2	768.729
1408.94	769.282
1411.67	767.808
1414.4	765.552
1417.12	764.093
1419.85	772.926
1422.58	777.024
1425.31	787.859
1428.03	802.175
1430.75	813.102
1433.48	848.629
1436.2	884.587
1438.92	952.056
1441.64	1020.07
1444.36	1095.92
1447.08	1172.37
1449.79	1209.78
1452.51	1221.27
1455.23	1214.75
1457.94	1177.15
1460.66	1125.7
1463.37	1056.99
1466.08	982.814
1468.79	916.236
1471.5	874.246
1474.21	834.384
1476.92	819.431
1479.62	804.328
1482.33	796.254
1485.03	794.393
1487.74	789.779
1490.44	790.55
1493.14	782.859
1495.84	769.82
1498.54	782.107
1501.24	774.348
1503.94	783.501
1506.63	774.948
1509.33	769.543
1512.03	771.134
1514.72	774.867
1517.41	769.59
1520.11	769.979
1522.8	768.236
1525.49	773.414
1528.18	775.465
1530.87	772.21
1533.55	778.584
1536.24	772.819
1538.93	774.406
1541.61	777.623
1544.29	766.527
1546.98	772.688
1549.66	771.314
1552.34	776.377
1555.02	777.531
1557.7	773.129
1560.38	775.05
1563.05	774.31
1565.73	778.339
1568.4	778.306
1571.08	782.334
1573.75	772.664
1576.42	777.674
1579.09	780.75
1581.77	785.44
1584.43	777.779
1587.1	784.259
1589.77	784.637
1592.44	784.561
1595.1	788.365
1597.77	788.751
1600.43	793.939
1603.09	792.305
1605.76	794.895
1608.42	801.91
1611.08	809.969
1613.74	807.317
1616.39	807.907
1619.05	793.008
1621.71	793.76
1624.36	789.433
1627.02	791.009
1629.67	788.464
1632.32	791.455
1634.97	792.226
1637.62	787.61
1640.27	793.607
1642.92	801.428
1645.57	790.568
1648.22	803.72
1650.86	804.117
1653.51	801.182
1656.15	799.66
1658.79	800.473
1661.44	801.509
1664.08	803.065
1666.72	798.439
1669.36	795.599
1671.99	800.216
1674.63	806.054
1677.27	806.607
1679.9	798.88
1682.54	801.905
1685.17	798.379
1687.81	802.712
1690.44	802.332
1693.07	797.14
1695.7	799.07
1698.33	807.093
1700.96	806.12
1703.58	800.956
1706.21	804.67
1708.83	795.763
1711.46	809.558
1714.08	815.169
1716.7	823.466
1719.32	828.336
1721.94	836.334
1724.56	835.839
1727.18	838.248
1729.8	846.065
1732.42	843.456
1735.03	861.084
1737.65	878.9
1740.26	913.773
1742.88	928.209
1745.49	983.684
1748.1	1023.2
1750.71	1045.79
1753.32	1078.57
1755.93	1089.53
1758.53	1091.47
1761.14	1129.95
1763.75	1156.7
1766.35	1187.08
1768.96	1198.43
1771.56	1205.83
1774.16	1183.48
1776.76	1118.53
1779.36	1069.05
1781.96	1016.5
1784.56	965.214
1787.16	928.421
1789.75	877.307
1792.35	864.858
1794.94	845.166
1797.54	851.648
1800.13	833.257
1802.72	833.199
1805.31	828.418
1807.9	817.182
1810.49	822.582
1813.08	818.097
1815.67	817.279
1818.25	812.018
1820.84	824.918
1823.42	811.897
1826.01	813.997
1828.59	812.944
1831.17	805.053
1833.75	804.345
1836.33	820.364
1838.91	813.339
1841.49	807.269
1844.07	810.145
1846.64	810.894
1849.22	804.332
1851.79	805.946
1854.36	813.968
1856.94	810.711
1859.51	807.012
1862.08	807.748
1864.65	806.244
1867.22	804.525
1869.79	804.232
1872.35	810.309
1874.92	805.807
1877.49	806.23
1880.05	807.285
1882.61	810.686
1885.18	806.128
1887.74	805.862
1890.3	799.95
1892.86	821.387
1895.42	809.846
1897.97	812.775
1900.53	819.412
1903.09	816.228
1905.64	817.179
1908.2	800.875
1910.75	819.379
1913.3	816.196
1915.86	816.005
1918.41	813.273
1920.96	810.961
1923.5	818.367
1926.05	813.01
1928.6	809.746
1931.15	807.674
1933.69	812.374
1936.24	806.269
1938.78	800.068
1941.32	806.383
1943.86	804.997
1946.4	816.742
1948.94	814.259
1951.48	814.886
1954.02	814.343
1956.56	813.161
1959.09	810.604
1961.63	813.809
1964.16	798.466
1966.7	799.965
1969.23	801.592
1971.76	802.27
1974.29	797.576
1976.82	802.708
1979.35	805.261
1981.88	820.62
1984.41	795.793
1986.93	804.097
1989.46	810.664
1991.98	808.781
1994.51	814.669
1997.03	808.68
1999.55	812.122
2002.07	817.186
2004.59	812.167
2007.11	809.553
2009.63	822.085
2012.15	807.679
2014.66	811.069
2017.18	818.638
2019.69	818.519
2022.21	812.241
2024.72	810.14
2027.23	814.974
2029.75	816.482
2032.26	817.068
2034.77	824.496
2037.27	824.742
2039.78	818.238
2042.29	823.163
2044.79	815.477
2047.3	823.746
2049.8	830.019
2052.31	820.145
2054.81	816.64
2057.31	824.067
2059.81	811.203
2062.31	819.507
2064.81	835.211
2067.31	831.457
2069.8	820.302
2072.3	821.839
2074.79	816.719
2077.29	831.167
2079.78	814.961
2082.27	819.509
2084.77	823.834
2087.26	812.95
2089.75	813.634
2092.24	813.487
2094.72	811.774
2097.21	813.203
2099.7	813.763
2102.18	813.457
2104.67	817.757
2107.15	806.118
2109.63	822.429
2112.11	825.183
2114.6	817.616
2117.08	818.652
2119.56	816.503
2122.03	824.389
2124.51	821.084
2126.99	823.51
2129.46	821.025
2131.94	826.978
2134.41	822.168
2136.89	825.142
2139.36	839.462
2141.83	819.174
2144.3	829.244
2146.77	826.549
2149.24	821.618
2151.71	817.644
2154.17	822.064
2156.64	834.806
2159.1	818.883
2161.57	821.547
2164.03	836.828
2166.49	828.883
2168.96	827.465
2171.42	835.625
2173.88	828.617
2176.34	824.781
2178.79	838.16
2181.25	832.886
2183.71	837.543
2186.16	838.837
2188.62	835.011
2191.07	837.406
2193.53	826.96
2195.98	830.796
2198.43	832.463
2200.88	830.45
2203.33	827.296
2205.78	834.486
2208.23	823.42
2210.67	828.983
2213.12	827.305
2215.56	823.328
2218.01	828.717
2220.45	832.014
2222.89	828.925
2225.33	834.546
2227.78	824.278
2230.22	834.117
2232.66	823.351
2235.09	820.15
2237.53	821.393
2239.97	831.179
2242.4	824.15
2244.84	829.748
2247.27	830.926
2249.7	825.648
2252.14	829.411
2254.57	828.4
2257	830.059
2259.43	828.411
2261.86	821.948
2264.28	818.807
2266.71	823.773
2269.14	820.33
2271.56	819.215
2273.99	822.819
2276.41	830.921
2278.83	817.319
2281.26	824.842
2283.67	820.56
2286.1	826.607
2288.52	822.509
2290.93	826.943
2293.35	832.868
2295.77	818.414
2298.18	826.788
2300.6	823.885
2303.01	833.193
2305.43	820.25
2307.84	835.185
2310.25	835.529
2312.66	825.338
2315.07	823.333
2317.48	821.782
2319.89	823.577
2322.29	829.474
2324.7	827.071
2327.11	823.034
2329.51	827.245
2331.91	828.156
2334.32	828.911
2336.72	826.612
2339.12	824.68
2341.52	823.159
2343.92	825.187
2346.32	822.911
2348.72	830.892
2351.11	834.357
2353.51	819.205
2355.91	831.385
2358.3	821.283
2360.69	821.905
2363.09	830.973
2365.48	817.835
2367.87	831.907
2370.26	818.894
2372.65	829.254
2375.04	824.747
2377.42	823.866
2379.81	828.246
2382.2	826.051
2384.58	823.749
2386.97	824.071
2389.35	833.521
2391.73	828.582
2394.11	835.161
2396.5	821.517
2398.87	834.958
2401.25	829.71
2403.63	827.543
2406.01	825.77
2408.39	826.485
2410.76	816.919
2413.14	826.474
2415.51	830.677
2417.89	822.415
2420.26	815.643
2422.63	833.468
2425	815.166
2427.37	824.588
2429.74	820.188
2432.11	829.14
2434.47	827.268
2436.84	825.871
2439.21	823.51
2441.57	817.525
2443.93	821.311
2446.3	817.387
2448.66	824.164
2451.02	824.111
2453.38	812.995
2455.74	820.102
2458.1	821.752
2460.46	818.075
2462.82	813.822
2465.17	824.647
2467.53	819.219
2469.88	823.994
2472.24	821.973
2474.59	819.953
2476.94	815.485
2479.29	816.512
2481.64	823.912
2483.99	814.885
2486.34	831.12
2488.69	814.202
2491.04	819.961
2493.38	827.42
2495.73	819.692
2498.08	830.642
2500.42	829.617
2502.76	826.206
2505.11	827.257
2507.45	826.119
2509.79	834.709
2512.13	825.746
2514.47	822.911
2516.8	829.227
2519.14	825.851
2521.48	829.406
2523.81	821.345
2526.15	825.772
2528.48	819.985
2530.81	816.148
2533.15	815.878
2535.48	822.359
2537.81	828.794
2540.14	823.942
2542.47	824.409
2544.8	827.481
2547.12	831.605
2549.45	833.485
2551.77	830.608
2554.1	827.629
2556.42	827.009
2558.75	827.587
2561.07	823.748
2563.39	835.597
2565.71	830.048
2568.03	839.814
2570.35	824.483
2572.67	833.138
2574.99	833.966
2577.3	829.892
2579.62	836.006
2581.93	828.529
2584.25	825.789
2586.56	831.28
2588.87	829.704
2591.19	827.597
2593.5	838.669
2595.81	827.171
2598.11	832.761
2600.42	825.978
2602.73	826.82
2605.04	827.366
2607.34	822.23
2609.65	824.994
2611.95	825.359
2614.26	816.086
2616.56	813.327
2618.86	824.241
2621.16	823.218
2623.46	819.709
2625.76	816.868
2628.06	824.43
2630.36	820.315
2632.65	821.429
2634.95	816.591
2637.25	814.838
2639.54	824.383
2641.83	810.43
2644.13	813.696
2646.42	811.638
2648.71	810.717
2651	813.958
2653.29	814.882
2655.58	812.414
2657.87	822.853
2660.15	823.074
2662.44	820.746
2664.72	814.008
2667.01	815.05
2669.29	817.996
2671.58	817.735
2673.86	823.354
2676.14	823.774
2678.42	821.845
2680.7	809.58
2682.98	811.02
2685.26	814.834
2687.54	800.564
2689.81	804.127
2692.09	806.157
2694.36	801.517
2696.64	798.865
2698.91	799.351
2701.18	792.952
2703.45	800.434
2705.72	788.591
2707.99	799.256
2710.26	791.662
2712.53	793.901
2714.8	787.694
2717.07	791.923
2719.33	801.954
2721.6	802.915
2723.86	820.292
2726.13	818.582
2728.39	825.367
2730.65	833.709
2732.91	852.004
2735.17	862.05
2737.43	860.166
2739.69	877.013
2741.95	865.88
2744.21	866.386
2746.46	864.263
2748.72	855.688
2750.97	842.909
2753.23	844.353
2755.48	833.066
2757.73	828.27
2759.98	823.735
2762.24	818.033
2764.49	805.253
2766.73	801.662
2768.98	791.438
2771.23	789.312
2773.48	780.686
2775.72	778.148
2777.97	768.499
2780.21	765.079
2782.46	764.798
2784.7	758.369
2786.94	755.449
2789.18	755.342
2791.42	749.425
2793.66	748.272
2795.9	744.098
2798.14	744.231
2800.38	745.721
2802.61	742.194
2804.85	740.946
2807.08	741.397
2809.32	737.12
2811.55	734.337
2813.78	734.849
2816.02	732.152
2818.25	729.679
2820.48	730.243
2822.71	728.602
2824.94	724.213
2827.16	729.563
2829.39	730.494
2831.61	728.309
2833.84	722.922
2836.06	728.742
2838.29	726.235
2840.51	727.462
2842.73	728.574
2844.96	729.586
2847.18	732.546
2849.4	731.2
2851.61	732.749
2853.83	732.433
2856.05	743.423
2858.27	757.372
2860.48	767.898
2862.7	786.331
2864.91	819.053
2867.13	861.909
2869.34	919.719
2871.55	1002.13
2873.76	1091.01
2875.97	1173.75
2878.18	1237.41
2880.39	1257.88
2882.6	1262.63
2884.81	1249.46
2887.01	1203.46
2889.22	1164.92
2891.42	1142.34
2893.63	1125.37
2895.83	1125.08
2898.03	1118.14
2900.23	1128.17
2902.43	1126.44
2904.63	1130.1
2906.83	1128.73
2909.03	1135.12
2911.09	1130.22
2913.31	1139.98
2915.54	1159.88
2917.76	1181.27
2919.99	1212.09
2922.21	1253.66
2924.43	1312.92
2926.65	1392.76
2928.87	1517.02
2931.09	1702.02
2933.31	2001.44
2935.53	2384.38
2937.75	2906.63
2939.97	3425.74
2942.18	3881.02
2944.4	4175.26
2946.61	4169.63
2948.83	3950.99
2951.04	3590.15
2953.25	3175.2
2955.47	2789.06
2957.68	2454.98
2959.89	2192.75
2962.1	1991.57
2964.31	1839.26
2966.52	1729.64
2968.73	1649.45
2970.93	1576.96
2973.14	1544.7
2975.35	1485.82
2977.55	1470.02
2979.76	1461.52
2981.96	1471.87
2984.16	1504.58
2986.37	1592.2
2988.57	1693.54
2990.77	1818.46
2992.97	1965.06
2995.17	2063.7
2997.37	2136.6
2999.57	2159.03
3001.77	2138.05
3003.96	2114.69
3006.16	2019.39
3008.36	1926.78
3010.55	1828.23
3012.75	1706.85
3014.94	1590.84
3017.13	1464.12
3019.32	1354.15
3021.52	1258.88
3023.71	1160.11
3025.9	1068.43
3028.09	1013.76
3030.28	951.486
3032.46	900.055
3034.65	854.11
3036.84	819.187
3039.02	798.398
3041.21	776.035
3043.39	756.136
3045.58	735.864
3047.76	741.85
3049.94	721.272
3052.13	710.542
3054.31	699.982
3056.49	689.406
3058.67	688.156
3060.85	684.97
3063.03	677.438
3065.2	676.099
3067.38	675.745
3069.56	668.823
3071.73	661.65
3073.91	663.637
3076.08	665.067
3078.26	664.253
3080.43	658.739
3082.6	657.491
3084.77	652.878
3086.95	648.846
3089.12	643.795
3091.29	640.182
3093.46	638.64
3095.62	636.149
3097.79	635.665
3099.96	633.851
3102.12	634.292
3104.29	633.574
3106.45	625.168
3108.62	625.746
3110.78	625.835
3112.95	622.999
3115.11	616.307
3117.27	621.524
3119.43	613.192
3121.59	622.013
3123.75	617.852
3125.91	615.582
3128.07	615.018
3130.22	625.774
3132.38	617.633
3134.54	616.24
3136.69	621.688
3138.85	612.299
3141	608.84
3143.16	610.236
3145.31	613.048
3147.46	614.231
3149.61	609.376
3151.76	609.819
3153.91	608.018
3156.06	614.838
3158.21	621.668
3160.36	612.65
3162.51	605.679
3164.65	614.578
3166.8	612.632
3168.94	611.181
3171.09	602.025
3173.23	611.097
3175.38	617.325
3177.52	609.211
3179.66	615.554
3181.8	604.671
3183.94	607.574
3186.08	611.774
3188.22	606.419
3190.36	611.535
3192.5	616.54
3194.63	620.156
3196.77	615.558
3198.91	615.539
3201.04	612.643
3203.18	621.091
3205.31	613.032
3207.44	614.603
3209.58	609.814
3211.71	618.26
3213.84	607.561
3215.97	612.987
3218.1	617.48
3220.23	607.5
3222.36	611.035
3224.49	610.243
3226.61	610.727
3228.74	604.956
3230.87	599.536
3232.99	605.641
3235.11	600.015
3237.24	603.807
3239.36	595.679
3241.48	594.173
3243.61	593.903
3245.73	589.709
3247.85	582.168
3249.97	596.143
3252.09	586.282
3254.2	586.696
3256.32	580.235
3258.44	580.152
3260.56	572.838
3262.67	581.721
3264.79	580.053
3266.9	578.392
3269.02	575.483
3271.13	574.661
3273.24	569.636
3275.35	572.694
3277.46	569.063
3279.57	565.245
3281.68	564.697
3283.79	564.857
3285.9	567.063
3288.01	564.353
3290.12	564.634
3292.22	558.762
3294.33	561.639
3296.43	556.248
3298.54	557.946
3300.64	559.462
3302.75	560.213
3304.85	556.811
3306.95	558.668
3309.05	549.253
3311.15	561.096
3313.25	548.646
3315.35	550.003
3317.45	564.237
3319.55	550.293
3321.65	543.47
3323.74	554.681
3325.84	551.681
3327.93	555.36
3330.03	548.776
3332.12	553.897
3334.21	545.594
3336.31	548.252
3338.4	551.489
3340.49	545.393
3342.58	542.798
3344.67	536.334
3346.76	536.31
3348.85	526.894
3350.94	531.692
3353.02	535.625
3355.11	542.893
3357.2	546.174
3359.28	543.249
3361.37	550.497
3363.45	547.776
3365.53	548.806
3367.62	540.92
3369.7	543.088
3371.78	538.792
3373.86	540.451
3375.94	537.162
3378.02	542.328
3380.1	538.563
3382.18	537.69
3384.25	539.507
3386.33	535.332
3388.41	531.808
3390.48	540.925
3392.56	533.104
3394.63	534.369
3396.71	536.662
3398.78	534.227
3400.85	535.284
3402.92	528.799
3404.99	534.01
3407.06	529.965
3409.13	529.734
3411.2	531.167
3413.27	527.904
3415.34	528.77
3417.4	526.332
3419.47	528.746
3421.54	532.127
3423.6	530.465
3425.67	528.575
3427.73	530.164
3429.79	527.003
3431.86	528.732
3433.92	533.104
3435.98	523.671
3438.04	528.987
3440.1	521.408
3442.16	520.451
3444.22	519.29
3446.27	518.912
3448.33	522.457
3450.39	520.959
3452.44	522.038
3454.5	519.054
3456.55	511.576
3458.61	519.551
3460.66	518.203
3462.71	518.2
3464.77	517.734
3466.82	515.365
3468.87	517.754
3470.92	515.563
3472.97	511.364
3475.02	515.83
3477.06	513.746
3479.11	513.88
3481.16	514.362
3483.2	508.892
3485.25	516.131
3487.3	509.288
3489.34	509.906
3491.38	509.014
3493.43	514.904
3495.47	510.798
3497.51	509.598
3499.55	511.151
