200.057	-3.46277
203.219	-0.803207
206.378	3.1351
209.539	1.76793
212.696	2.97209
215.854	1.47763
219.009	3.74269
222.165	10.3854
225.318	9.86119
228.472	9.90094
231.622	12.4202
234.774	16.0937
237.923	17.6906
241.07	23.2879
244.217	19.9862
247.364	21.0767
250.508	20.8686
253.652	25.2624
256.794	27.3179
259.937	26.5012
263.077	32.1143
266.216	23.4733
269.354	30.387
272.491	30.0513
275.626	30.5048
278.761	36.5874
281.895	35.7427
285.027	42.4191
288.159	43.5574
291.287	47.344
294.417	43.7795
297.545	40.4506
300.672	44.643
303.799	39.656
306.922	39.5102
310.046	44.996
313.169	38.826
316.289	36.539
319.41	30.8273
322.528	29.3834
325.647	20.6438
328.764	14.3276
331.879	16.2683
334.993	17.0821
338.107	9.28419
341.219	10.0375
344.332	9.19376
347.441	12.8836
350.549	10.5004
353.659	9.18954
356.765	8.95438
359.87	15.6734
362.975	17.0076
366.078	11.3294
369.18	20.6743
372.281	34.5929
375.383	30.3543
378.482	43.8138
381.58	58.4268
384.675	73.7086
387.771	81.4109
390.865	93.7321
393.959	100.424
397.052	95.8232
400.144	101.829
403.234	92.5775
406.322	91.3778
409.411	79.4013
412.498	72.617
415.583	52.5322
418.668	50.6997
421.75	39.2875
424.834	32.5469
427.916	21.3291
430.996	19.521
434.074	10.3598
437.153	14.0346
440.229	10.9859
443.306	13.7625
446.381	0.977011
449.454	6.80411
452.526	5.0259
455.599	2.72268
458.669	-3.1158
461.738	-2.48804
464.806	-5.61425
467.873	-6.30483
470.939	-1.51504
474.004	-1.83883
477.067	-0.257235
480.13	-4.81017
483.192	-2.29707
486.253	-1.66685
489.313	2.37277
492.369	6.3098
495.427	4.71898
498.484	2.02162
501.54	5.57096
504.592	8.21483
507.646	7.1988
510.698	8.38703
513.748	8.04431
516.799	2.15219
519.846	3.2795
522.895	0.1655
525.94	2.09029
528.985	3.36604
532.03	2.18501
535.073	8.43069
538.114	8.53328
541.157	7.31399
544.196	14.0352
547.234	11.8455
550.272	15.6876
553.308	12.4813
556.344	9.08402
559.378	11.3031
562.411	10.5722
565.444	7.96511
568.475	7.02085
571.505	7.54868
574.535	5.96999
577.563	7.64004
580.588	7.97834
583.615	2.52226
586.64	5.7806
589.662	4.14186
592.686	2.66776
595.708	9.14807
598.727	-0.644158
601.747	-2.11614
604.765	-0.359427
607.783	-2.08369
610.798	-4.63707
613.813	2.32752
616.828	6.41024
619.84	33.4154
622.851	78.0113
625.862	135.777
628.873	146.177
631.881	120.173
634.889	78.6528
637.895	42.2072
640.9	18.0255
643.904	13.9124
646.908	16.8105
649.91	22.7864
652.909	21.81
655.91	17.993
658.909	13.3839
661.907	15.1002
664.903	15.0922
667.899	16.064
670.895	21.0984
673.887	18.7679
676.88	14.9972
679.871	14.6282
682.862	12.097
685.851	12.3669
688.84	19.9627
691.827	26.8204
694.812	37.5495
697.799	45.0652
700.782	51.1968
703.765	50.3958
706.746	32.8983
709.727	22.4233
712.706	10.3152
715.685	2.75305
718.663	0.961252
721.639	-0.420396
724.615	2.11269
727.59	8.12628
730.563	18.3137
733.536	24.581
736.506	28.2514
739.477	23.9036
742.446	17.1737
745.413	15.0179
748.381	21.7552
751.346	15.6592
754.312	12.2295
757.275	18.4494
760.239	17.6266
763.2	17.7392
766.16	18.5597
769.121	21.9173
772.079	20.3226
775.036	15.5052
777.992	13.3961
780.947	21.3604
783.901	26.6142
786.855	35.0887
789.807	32.943
792.758	45.599
795.709	40.2572
798.658	33.0818
801.606	30.4468
804.554	35.4719
807.498	35.0965
810.444	34.1642
813.388	33.7042
816.33	39.8539
819.273	44.261
822.212	48.3935
825.153	50.4008
828.091	51.9244
831.027	65.1936
833.965	81.5774
836.9	86.817
839.834	103.882
842.769	130.767
845.701	158.061
848.632	193.221
851.562	215.736
854.491	248.002
857.419	292.49
860.347	341.525
863.273	380.501
866.196	429.885
869.121	438.747
872.044	396.899
874.966	340.508
877.886	266.73
880.807	201.504
883.726	141.95
886.643	110.531
889.561	101.344
892.475	83.6532
895.389	62.351
898.304	64.2328
901.216	51.9473
904.127	45.6377
907.037	39.014
909.948	38.0322
912.856	38.257
915.764	32.9098
918.67	30.9222
921.575	30.3887
924.479	28.6119
927.381	28.0441
930.284	21.6894
933.185	17.5711
936.086	15.5174
938.983	12.4323
941.882	11.1314
944.78	8.03699
947.675	-1.92679
950.571	7.52308
953.464	9.18803
956.358	1.84286
959.249	4.6694
962.139	0.38885
965.028	-1.06644
967.919	-7.19501
970.806	-1.74599
973.693	-2.34452
976.578	-2.45042
979.463	-4.08869
982.346	10.2733
985.229	10.944
988.111	32.1774
990.992	40.8462
993.87	75.4496
996.749	81.8121
999.627	77.1595
1002.5	65.9459
1005.38	48.4632
1008.25	33.5162
1011.13	34.2281
1014	38.5764
1016.87	51.5179
1019.74	49.3203
1022.61	64.0006
1025.48	70.5052
1028.35	82.4067
1031.21	94.3394
1034.08	119.536
1036.94	137.279
1039.8	144.381
1042.67	127.502
1045.53	125.241
1048.39	110.875
1051.25	96.5217
1054.1	83.6283
1056.96	66.6139
1059.82	57.6584
1062.67	38.4007
1065.53	38.8131
1068.38	38.9139
1071.23	43.955
1074.08	55.5435
1076.93	59.5417
1079.78	79.4382
1082.63	94.6241
1085.48	112.564
1088.32	132.418
1091.17	143.288
1094.01	161.876
1096.85	165.614
1099.7	165.691
1102.54	163.623
1105.38	172.612
1108.21	188.216
1111.05	198.654
1113.89	201.709
1116.72	220.73
1119.56	229.478
1122.39	224.321
1125.23	215.077
1128.06	185.165
1130.89	168.047
1133.72	141.34
1136.55	115.171
1139.37	84.6453
1142.2	66.8054
1145.03	48.6732
1147.85	43.6576
1150.67	38.1458
1153.5	41.1111
1156.32	40.5802
1159.14	43.9007
1161.96	51.975
1164.78	74.4884
1167.6	85.1242
1170.41	103.827
1173.23	105.715
1176.04	107.528
1178.86	95.4952
1181.67	79.0082
1184.48	65.1909
1187.29	58.7223
1190.1	49.8645
1192.91	40.9763
1195.72	41.5628
1198.52	44.2037
1201.33	38.4492
1204.13	35.9992
1206.94	45.8907
1209.74	43.8446
1212.54	44.041
1215.34	50.2419
1218.14	50.749
1220.94	43.535
1223.74	49.3528
1226.54	54.8931
1229.33	51.1323
1232.13	56.7196
1234.92	56.3782
1237.71	63.5683
1240.5	72.2181
1243.3	75.2465
1246.09	83.3659
1248.87	102.716
1251.66	109.807
1254.45	118.568
1257.23	133.999
1260.02	157.9
1262.8	176.261
1265.59	203.442
1268.37	241.619
1271.15	273.639
1273.93	300.512
1276.71	325.46
1279.48	349.321
1282.26	349.048
1285.04	350.776
1287.81	350.818
1290.58	342.207
1293.36	324.015
1296.13	311.272
1298.9	289.36
1301.67	264.012
1304.44	253.85
1307.21	235.636
1309.98	206.854
1312.74	185.222
1315.51	159.599
1318.27	149.478
1321.03	127.906
1323.8	122.139
1326.56	108.989
1329.32	108.856
1332.08	101.295
1334.83	88.8632
1337.59	97.2225
1340.35	94.2096
1343.1	101.897
1345.86	90.3424
1348.61	102.416
1351.36	104.227
1354.11	109.583
1356.86	112.012
1359.61	119.725
1362.36	116.425
1365.11	118.402
1367.86	118.725
1370.6	115.273
1373.35	120.846
1376.09	122.899
1378.83	127.565
1381.57	132.015
1384.31	129.656
1387.05	119.27
1389.79	109.418
1392.53	92.0397
1395.27	92.1924
1398	71.6117
1400.74	79.2083
1403.47	86.4065
1406.2	90.092
1408.94	87.5124
1411.67	81.8906
1414.4	74.7512
1417.12	63.8042
1419.85	66.5398
1422.58	58.5193
1425.31	62.2265
1428.03	78.2517
1430.75	102.62
1433.48	127.043
1436.2	165.72
1438.92	201.575
1441.64	245.608
1444.36	292.326
1447.08	316.84
1449.79	326.276
1452.51	336.285
1455.23	320.65
1457.94	294.673
1460.66	253.117
1463.37	203.407
1466.08	170.256
1468.79	136.593
1471.5	103.956
1474.21	89.8545
1476.92	74.7131
1479.62	55.0609
1482.33	61.277
1485.03	44.0139
1487.74	45.3374
1490.44	37.1211
1493.14	44.3315
1495.84	40.8958
1498.54	39.6986
1501.24	38.5463
1503.94	43.1986
1506.63	37.7389
1509.33	34.1602
1512.03	29.4227
1514.72	27.4742
1517.41	34.4641
1520.11	32.6439
1522.8	26.8298
1525.49	33.1128
1528.18	28.76
1530.87	26.0672
1533.55	34.3013
1536.24	34.7479
1538.93	39.8817
1541.61	30.9329
1544.29	34.8872
1546.98	38.5103
1549.66	32.0469
1552.34	37.0536
1555.02	39.012
1557.7	48.5156
1560.38	40.0458
1563.05	41.5796
1565.73	46.4491
1568.4	47.3282
1571.08	50.9283
1573.75	53.0912
1576.42	62.1818
1579.09	72.445
1581.77	90.1913
1584.43	91.0622
1587.1	97.7703
1589.77	120.942
1592.44	133.252
1595.1	183.287
1597.77	247.185
1600.43	362.74
1603.09	538.357
1605.76	767.512
1608.42	990.818
1611.08	1106.31
1613.74	1045.62
1616.39	824.283
1619.05	568.328
1621.71	347.842
1624.36	202.779
1627.02	135.167
1629.67	101.597
1632.32	76.0692
1634.97	61.683
1637.62	60.2188
1640.27	53.1505
1642.92	55.4133
1645.57	49.1845
1648.22	43.1184
1650.86	45.1049
1653.51	45.5254
1656.15	41.9224
1658.79	43.314
1661.44	38.3619
1664.08	42.1112
1666.72	48.4231
1669.36	43.6233
1671.99	51.825
1674.63	47.0539
1677.27	52.9403
1679.9	57.7448
1682.54	49.9327
1685.17	58.0836
1687.81	55.7793
1690.44	63.6007
1693.07	69.8151
1695.7	67.9393
1698.33	82.3774
1700.96	96.7881
1703.58	137.843
1706.21	181.9
1708.83	258.526
1711.46	345.353
1714.08	457.66
1716.7	547.267
1719.32	623.586
1721.94	668.293
1724.56	672.09
1727.18	657.739
1729.8	619.186
1732.42	553.326
1735.03	495.501
1737.65	411.963
1740.26	346.47
1742.88	299.54
1745.49	254.849
1748.1	237.658
1750.71	222.421
1753.32	214.048
1755.93	206.978
1758.53	208.547
1761.14	212.483
1763.75	218.108
1766.35	222.876
1768.96	223.91
1771.56	220.952
1774.16	209.043
1776.76	177.138
1779.36	142.948
1781.96	117.964
1784.56	101.33
1787.16	82.6469
1789.75	67.5784
1792.35	63.907
1794.94	40.9985
1797.54	41.4281
1800.13	34.7897
1802.72	37.4542
1805.31	38.3433
1807.9	36.1908
1810.49	30.155
1813.08	33.9223
1815.67	32.3897
1818.25	34.6895
1820.84	30.9805
1823.42	28.7572
1826.01	24.3191
1828.59	14.076
1831.17	22.0905
1833.75	19.8733
1836.33	23.423
1838.91	20.4472
1841.49	15.8332
1844.07	24.424
1846.64	11.6546
1849.22	12.6064
1851.79	4.13549
1854.36	17.9191
1856.94	11.2155
1859.51	2.27456
1862.08	8.71597
1864.65	-4.09048
1867.22	4.27505
1869.79	3.56304
1872.35	7.16242
1874.92	3.09809
1877.49	-1.79755
1880.05	5.98014
1882.61	6.66888
1885.18	8.14394
1887.74	14.0809
1890.3	8.79284
1892.86	4.6025
1895.42	18.333
1897.97	15.4135
1900.53	15.0172
1903.09	13.9531
1905.64	9.13159
1908.2	4.88801
1910.75	9.08944
1913.3	9.58926
1915.86	6.98694
1918.41	12.6231
1920.96	9.69124
1923.5	2.89175
1926.05	1.70811
1928.6	7.46374
1931.15	6.9626
1933.69	6.12977
1936.24	4.87399
1938.78	0.392535
1941.32	12.407
1943.86	3.81861
1946.4	2.25378
1948.94	1.63244
1951.48	4.58088
1954.02	-0.00362049
1956.56	0.643135
1959.09	0.407551
1961.63	-9.40479
1964.16	-2.42778
1966.7	1.94138
1969.23	-1.59244
1971.76	-3.89516
1974.29	-1.35067
1976.82	-9.17423
1979.35	0.602073
1981.88	-3.17061
1984.41	0.729966
1986.93	0.897578
1989.46	-4.86593
1991.98	-0.491358
1994.51	3.73915
1997.03	-1.07912
1999.55	1.53551
2002.07	3.47111
2004.59	-1.00836
2007.11	1.40146
2009.63	2.49621
2012.15	5.23356
2014.66	6.12786
2017.18	3.25094
2019.69	1.0925
2022.21	4.2995
2024.72	1.21996
2027.23	3.36696
2029.75	2.2
2032.26	4.90921
2034.77	1.88287
2037.27	-0.182924
2039.78	2.12216
2042.29	4.01194
2044.79	3.65996
2047.3	3.22464
2049.8	-1.36055
2052.31	3.58979
2054.81	2.84304
2057.31	3.67211
2059.81	-0.859924
2062.31	2.91136
2064.81	1.35601
2067.31	4.2221
2069.8	-0.218724
2072.3	-2.0556
2074.79	2.23371
2077.29	-5.00724
2079.78	1.02998
2082.27	-0.707787
2084.77	-7.02331
2087.26	0.535671
2089.75	1.01997
2092.24	-2.56785
2094.72	-5.45276
2097.21	-1.38594
2099.7	-1.48918
2102.18	-0.724318
2104.67	-2.17592
2107.15	-4.77494
2109.63	4.16068
2112.11	-5.38166
2114.6	-6.20373
2117.08	2.51408
2119.56	-1.85688
2122.03	-2.78544
2124.51	-11.8893
2126.99	-1.94963
2129.46	-1.79563
2131.94	-0.928805
2134.41	-1.84026
2136.89	-4.21064
2139.36	-1.84073
2141.83	3.78102
2144.3	2.59323
2146.77	2.63514
2149.24	5.71446
2151.71	-4.89562
2154.17	0.89367
2156.64	-3.1242
2159.1	2.83646
2161.57	1.31622
2164.03	3.53687
2166.49	0.73892
2168.96	3.21932
2171.42	2.54314
2173.88	5.8172
2176.34	2.3545
2178.79	3.75178
2181.25	-3.60841
2183.71	5.11675
2186.16	2.57165
2188.62	6.81004
2191.07	-7.59975
2193.53	3.63018
2195.98	-0.748
2198.43	7.86905
2200.88	6.21474
2203.33	6.47901
2205.78	2.29035
2208.23	-2.24365
2210.67	4.44521
2213.12	-5.9212
2215.56	-6.32327
2218.01	0.465663
2220.45	-3.95482
2222.89	-0.818267
2225.33	-2.60363
2227.78	-3.10897
2230.22	-6.95905
2232.66	5.62199
2235.09	-1.80897
2237.53	4.56199
2239.97	-2.68614
2242.4	-1.81564
2244.84	-6.49016
2247.27	1.37078
2249.7	6.58346
2252.14	7.47621
2254.57	4.82602
2257	-1.29994
2259.43	9.32111
2261.86	3.69612
2264.28	0.365303
2266.71	-9.26134
2269.14	-5.24901
2271.56	-3.45797
2273.99	0.382319
2276.41	-1.12919
2278.83	0.797434
2281.26	0.896668
2283.67	-2.40358
2286.1	-1.78267
2288.52	1.80247
2290.93	7.02445
2293.35	6.16224
2295.77	2.22137
2298.18	-4.90859
2300.6	8.39054
2303.01	4.52017
2305.43	-2.95991
2307.84	4.8575
2310.25	5.01105
2312.66	5.06311
2315.07	2.00986
2317.48	5.3687
2319.89	4.89961
2322.29	2.62308
2324.7	11.8987
2327.11	-2.78522
2329.51	4.3562
2331.91	6.42554
2334.32	3.91005
2336.72	4.82499
2339.12	6.58532
2341.52	3.45293
2343.92	10.0681
2346.32	1.39803
2348.72	7.35605
2351.11	12.057
2353.51	7.28927
2355.91	11.2706
2358.3	1.95011
2360.69	11.8207
2363.09	4.00324
2365.48	1.69059
2367.87	11.1711
2370.26	13.2912
2372.65	9.83838
2375.04	12.1933
2377.42	16.1497
2379.81	16.6583
2382.2	3.45048
2384.58	17.315
2386.97	17.4054
2389.35	11.8988
2391.73	12.1401
2394.11	19.1535
2396.5	12.0827
2398.87	16.0624
2401.25	16.1815
2403.63	14.2075
2406.01	20.4995
2408.39	26.0218
2410.76	18.7312
2413.14	18.2496
2415.51	20.3069
2417.89	19.5344
2420.26	17.5092
2422.63	19.2259
2425	27.9562
2427.37	23.5156
2429.74	15.6221
2432.11	26.2402
2434.47	17.4508
2436.84	27.1303
2439.21	19.9753
2441.57	28.9746
2443.93	19.4864
2446.3	24.0303
2448.66	29.0786
2451.02	21.4458
2453.38	20.5734
2455.74	20.1858
2458.1	28.8296
2460.46	32.7757
2462.82	29.7413
2465.17	29.287
2467.53	28.6455
2469.88	26.8905
2472.24	32.7012
2474.59	26.9122
2476.94	32.0931
2479.29	34.4529
2481.64	36.8408
2483.99	28.6786
2486.34	36.9174
2488.69	39.0119
2491.04	40.0736
2493.38	34.5138
2495.73	38.7352
2498.08	44.138
2500.42	42.9923
2502.76	41.4941
2505.11	44.6577
2507.45	42.1692
2509.79	60.8209
2512.13	49.4275
2514.47	50.242
2516.8	43.4348
2519.14	42.2128
2521.48	60.8634
2523.81	45.3415
2526.15	59.36
2528.48	54.3857
2530.81	47.0378
2533.15	49.9423
2535.48	50.3781
2537.81	57.9349
2540.14	53.2045
2542.47	56.4493
2544.8	57.6336
2547.12	54.3455
2549.45	55.4391
2551.77	61.1598
2554.1	60.9976
2556.42	53.4772
2558.75	68.1047
2561.07	70.8014
2563.39	70.938
2565.71	76.5287
2568.03	63.0112
2570.35	65.2986
2572.67	64.3307
2574.99	76.9198
2577.3	66.5653
2579.62	80.3738
2581.93	70.6869
2584.25	75.8888
2586.56	79.7742
2588.87	72.5866
2591.19	75.3576
2593.5	88.3439
2595.81	82.5017
2598.11	88.2872
2600.42	83.0736
2602.73	80.9498
2605.04	93.1632
2607.34	89.9681
2609.65	90.3646
2611.95	83.269
2614.26	91.0314
2616.56	92.9396
2618.86	86.8376
2621.16	97.118
2623.46	92.6579
2625.76	94.2156
2628.06	93.3757
2630.36	96.0842
2632.65	100.92
2634.95	101.112
2637.25	94.5855
2639.54	88.3773
2641.83	92.5223
2644.13	85.8208
2646.42	87.1943
2648.71	91.2478
2651	86.0888
2653.29	88.5676
2655.58	94.0476
2657.87	88.4087
2660.15	93.963
2662.44	99.771
2664.72	93.851
2667.01	91.7934
2669.29	99.7632
2671.58	100.034
2673.86	97.9034
2676.14	92.1453
2678.42	95.8795
2680.7	90.4675
2682.98	89.9589
2685.26	94.992
2687.54	80.5702
2689.81	83.6591
2692.09	84.4596
2694.36	90.0847
2696.64	76.6762
2698.91	75.0118
2701.18	80.1419
2703.45	77.5813
2705.72	76.7526
2707.99	76.497
2710.26	72.6275
2712.53	76.7303
2714.8	69.2019
2717.07	77.7835
2719.33	80.7964
2721.6	83.704
2723.86	90.3358
2726.13	82.0247
2728.39	83.3095
2730.65	93.1525
2732.91	90.3453
2735.17	109.832
2737.43	99.8606
2739.69	103.806
2741.95	104.727
2744.21	104.511
2746.46	102.933
2748.72	99.9808
2750.97	95.3812
2753.23	83.0765
2755.48	87.0212
2757.73	83.3437
2759.98	79.7484
2762.24	77.5891
2764.49	66.6486
2766.73	64.6269
2768.98	58.8769
2771.23	52.3481
2773.48	54.2586
2775.72	55.5498
2777.97	49.1958
2780.21	49.4942
2782.46	45.6646
2784.7	44.7983
2786.94	44.3619
2789.18	38.0341
2791.42	40.9204
2793.66	38.5479
2795.9	29.8988
2798.14	34.078
2800.38	28.1649
2802.61	24.6659
2804.85	28.2663
2807.08	19.0645
2809.32	23.2466
2811.55	18.4039
2813.78	15.9587
2816.02	15.4903
2818.25	15.7199
2820.48	12.0042
2822.71	12.2815
2824.94	12.5791
2827.16	6.21891
2829.39	7.47987
2831.61	8.51972
2833.84	8.41073
2836.06	8.80248
2838.29	9.00821
2840.51	11.8521
2842.73	22.8806
2844.96	30.6599
2847.18	36.9516
2849.4	44.3312
2851.61	51.7185
2853.83	57.0796
2856.05	63.0459
2858.27	69.4728
2860.48	79.7849
2862.7	82.4065
2864.91	88.5968
2867.13	112.072
2869.34	137.278
2871.55	172.019
2873.76	207.44
2875.97	238.559
2878.18	271.062
2880.39	280.877
2882.6	290.465
2884.81	288.241
2887.01	275.951
2889.22	268.404
2891.42	251.729
2893.63	235.894
2895.83	233.698
2898.03	230.035
2900.23	223.216
2902.43	220.494
2904.63	220.645
2906.83	217.064
2909.03	223.514
2911.09	223.377
2913.31	228.795
2915.54	233.934
2917.76	246.821
2919.99	257.173
2922.21	287.194
2924.43	316.405
2926.65	354.486
2928.87	416.219
2931.09	515.336
2933.31	643.393
2935.53	824.235
2937.75	1050.11
2939.97	1268.42
2942.18	1477.61
2944.4	1570.21
2946.61	1572.21
2948.83	1507.91
2951.04	1356.16
2953.25	1225.4
2955.47	1093.32
2957.68	952.437
2959.89	848.033
2962.1	769.147
2964.31	706.61
2966.52	644.044
2968.73	600.27
2970.93	560.539
2973.14	518.206
2975.35	480.647
2977.55	460.741
2979.76	445.196
2981.96	436.658
2984.16	448.448
2986.37	458.208
2988.57	501.446
2990.77	565.159
2992.97	604.241
2995.17	652.503
2997.37	666.992
2999.57	673.246
3001.77	673.073
3003.96	645.304
3006.16	613.594
3008.36	570.196
3010.55	513.362
3012.75	464.72
3014.94	402.86
3017.13	351.67
3019.32	313.541
3021.52	256.945
3023.71	207.313
3025.9	175.29
3028.09	145.717
3030.28	123.477
3032.46	99.332
3034.65	77.3559
3036.84	77.8326
3039.02	50.954
3041.21	42.557
3043.39	47.962
3045.58	41.0983
3047.76	37.5716
3049.94	44.1048
3052.13	36.4104
3054.31	44.9856
3056.49	66.3013
3058.67	75.841
3060.85	87.8052
3063.03	108.543
3065.2	135.482
3067.38	152.382
3069.56	175.958
3071.73	203.923
3073.91	220.725
3076.08	264.136
3078.26	299.268
3080.43	300.292
3082.6	301.325
3084.77	258.651
3086.95	227.243
3089.12	175.87
3091.29	150.456
3093.46	114.483
3095.62	97.8764
3097.79	65.078
3099.96	52.3869
3102.12	36.4465
3104.29	46.2915
3106.45	27.8429
3108.62	19.0305
3110.78	8.79164
3112.95	12.0514
3115.11	7.86177
3117.27	7.25237
3119.43	-3.72228
3121.59	5.30486
3123.75	2.12607
3125.91	-6.63594
3128.07	-3.68304
3130.22	-1.67341
3132.38	0.47537
3134.54	-8.21915
3136.69	-1.14904
3138.85	-2.81435
3141	-1.60025
3143.16	-8.64601
3145.31	4.03981
3147.46	1.75559
3149.61	5.03352
3151.76	7.15755
3153.91	5.97449
3156.06	8.60814
3158.21	2.67486
3160.36	2.91809
3162.51	1.22068
3164.65	-0.415176
3166.8	-3.74962
3168.94	1.3046
3171.09	4.67891
3173.23	1.61834
3175.38	3.55619
3177.52	8.00308
3179.66	2.09688
3181.8	0.329116
3183.94	4.24928
3186.08	6.52149
3188.22	5.34098
3190.36	0.371339
3192.5	2.09064
3194.63	3.1227
3196.77	4.35509
3198.91	8.9618
3201.04	12.3138
3203.18	16.2715
3205.31	10.6234
3207.44	9.07982
3209.58	12.0924
3211.71	14.6155
3213.84	22.0147
3215.97	25.5876
3218.1	30.7197
3220.23	28.7863
3222.36	31.8488
3224.49	19.5352
3226.61	24.7225
3228.74	18.5742
3230.87	24.9657
3232.99	18.4444
3235.11	11.6867
3237.24	14.7645
3239.36	-0.0954192
3241.48	4.08681
3243.61	8.44143
3245.73	4.11103
3247.85	10.2704
3249.97	1.6387
3252.09	-1.32676
3254.2	1.17196
3256.32	-4.01462
3258.44	-0.935232
3260.56	0.501943
3262.67	-7.1644
3264.79	2.12691
3266.9	5.5192
3269.02	-1.22974
3271.13	-5.72564
3273.24	-3.29025
3275.35	1.96636
3277.46	0.0834607
3279.57	5.61622
3281.68	-6.98269
3283.79	-1.26562
3285.9	-4.18459
3288.01	2.33463
3290.12	3.37954
3292.22	0.290967
3294.33	-2.31705
3296.43	2.27257
3298.54	3.47984
3300.64	2.39063
3302.75	-5.45992
3304.85	-0.967557
3306.95	-4.35572
3309.05	3.44089
3311.15	2.50772
3313.25	-4.91539
3315.35	2.12718
3317.45	-3.52657
3319.55	-5.24055
3321.65	-7.50204
3323.74	0.681637
3325.84	4.0199
3327.93	3.06377
3330.03	9.59729
3332.12	6.72488
3334.21	0.144175
3336.31	1.82211
3338.4	8.69129
3340.49	4.92073
3342.58	9.39431
3344.67	6.83043
3346.76	-3.51688
3348.85	3.14526
3350.94	3.45749
3353.02	-2.63584
3355.11	11.746
3357.2	-2.16196
3359.28	8.23862
3361.37	3.52912
3363.45	3.97322
3365.53	5.83902
3367.62	9.17345
3369.7	0.844717
3371.78	6.80865
3373.86	7.13108
3375.94	0.184322
3378.02	9.98425
3380.1	4.78266
3382.18	3.5579
3384.25	6.37382
3386.33	11.9798
3388.41	-4.39757
3390.48	2.70857
3392.56	11.4659
3394.63	2.36801
3396.71	8.02603
3398.78	2.60291
3400.85	3.54277
3402.92	5.12413
3404.99	6.24859
3407.06	3.9854
3409.13	8.07601
3411.2	3.90793
3413.27	7.08228
3415.34	7.04465
3417.4	4.00597
3419.47	7.08173
3421.54	9.8037
3423.6	-0.029447
3425.67	5.21572
3427.73	-2.52011
3429.79	2.89906
3431.86	-1.98793
3433.92	4.56575
3435.98	0.550992
3438.04	0.160994
3440.1	0.280639
3442.16	4.52538
3444.22	-0.00792023
3446.27	6.54164
3448.33	-1.55478
3450.39	2.8165
3452.44	4.67528
3454.5	-2.03139
3456.55	3.46092
3458.61	8.52173
3460.66	2.83319
3462.71	10.661
3464.77	6.39006
3466.82	0.682606
3468.87	4.81626
3470.92	3.05127
3472.97	6.96602
3475.02	-0.787059
3477.06	0.0880847
3479.11	0.818451
3481.16	-4.99275
3483.2	5.82368
3485.25	6.2672
3487.3	2.19981
3489.34	-2.25382
3491.38	-0.476445
3493.43	-7.26102
3495.47	-9.20802
3497.51	2.39868
3499.55	-2.55933
