200.057	-19.1467
203.219	-6.36499
206.378	12.2327
209.539	29.6415
212.696	25.7456
215.854	42.0031
219.009	56.0066
222.165	56.3657
225.318	55.5217
228.472	76.9686
231.622	93.2766
234.774	83.7955
237.923	101.135
241.07	92.489
244.217	96.3291
247.364	97.4948
250.508	96.0933
253.652	102.153
256.794	93.8452
259.937	100.533
263.077	106.314
266.216	108.098
269.354	114.753
272.491	119.129
275.626	130.669
278.761	145.215
281.895	156.653
285.027	163.636
288.159	176.635
291.287	174.436
294.417	186.568
297.545	185.511
300.672	176.774
303.799	175.198
306.922	155.484
310.046	138.21
313.169	131.491
316.289	125.239
319.41	122.614
322.528	101.837
325.647	98.73
328.764	100.116
331.879	81.7039
334.993	87.3719
338.107	84.2217
341.219	79.9424
344.332	74.035
347.441	83.7509
350.549	110.015
353.659	137.164
356.765	128.454
359.87	127.559
362.975	106.213
366.078	108.411
369.18	81.8813
372.281	88.0061
375.383	87.5845
378.482	95.6418
381.58	102.151
384.675	135.776
387.771	161.604
390.865	207.279
393.959	211.308
397.052	211.713
400.144	207.052
403.234	207.696
406.322	202.115
409.411	185.414
412.498	149.703
415.583	123.501
418.668	93.333
421.75	64.0204
424.834	69.2694
427.916	60.4508
430.996	47.4851
434.074	26.285
437.153	16.4249
440.229	11.8813
443.306	3.09692
446.381	3.07019
449.454	-21.0441
452.526	-9.77759
455.599	-20.4764
458.669	-24.3818
461.738	-12.2679
464.806	0.832886
467.873	-5.15344
470.939	1.85303
474.004	-8.88708
477.067	-2.88306
480.13	0.762817
483.192	-9.9978
486.253	-2.53503
489.313	10.9459
492.369	-2.37012
495.427	13.1731
498.484	26.4379
501.54	19.4009
504.592	20.0509
507.646	35.9988
510.698	17.5002
513.748	12.1689
516.799	20.6945
519.846	4.02991
522.895	1.70117
525.94	-21.3987
528.985	-16.3811
532.03	-15.6373
535.073	-19.246
538.114	-13.9343
541.157	-8.33887
544.196	-8.05737
547.234	4.90869
550.272	-11.1697
553.308	0.585938
556.344	-4.99316
559.378	-21.7841
562.411	7.4895
565.444	12.7644
568.475	9.14307
571.505	2.10767
574.535	10.005
577.563	7.38928
580.588	7.71118
583.615	-7.04407
586.64	5.67188
589.662	17.1543
592.686	-9.58044
595.708	-10.2994
598.727	-4.09802
601.747	-12.241
604.765	-4.45935
607.783	-14.3873
610.798	-13.3445
613.813	-25.142
616.828	-22.3778
619.84	16.4524
622.851	46.6323
625.862	93.6962
628.873	106.004
631.881	95.7372
634.889	55.0839
637.895	22.8633
640.9	18.6937
643.904	10.9014
646.908	4.61182
649.91	16.7389
652.909	20.967
655.91	23.9781
658.909	29.302
661.907	66.896
664.903	82.4352
667.899	125.213
670.895	135.306
673.887	146.844
676.88	115.677
679.871	82.7357
682.862	50.1149
685.851	29.0288
688.84	23.1846
691.827	21.2461
694.812	19.8048
697.799	31.326
700.782	39.3226
703.765	40.3231
706.746	24.1942
709.727	18.759
712.706	6.06116
715.685	0.288574
718.663	-24.0782
721.639	-14.5157
724.615	-22.0446
727.59	-15.2579
730.563	12.0039
733.536	21.4336
736.506	25.651
739.477	24.601
742.446	22.2723
745.413	-4.18359
748.381	1.92944
751.346	-11.928
754.312	-2.83606
757.275	-3.99353
760.239	-11.4694
763.2	-23.9252
766.16	-28.975
769.121	-23.9072
772.079	-24.1929
775.036	-33.9298
777.992	-27.7338
780.947	-28.0687
783.901	-26.6722
786.855	-9.22168
789.807	-9.61096
792.758	16.4701
795.709	1.09888
798.658	12.3082
801.606	7.26831
804.554	-2.14478
807.498	5.14111
810.444	2.58337
813.388	6.54224
816.33	12.165
819.273	15.561
822.212	31.8975
825.153	34.2869
828.091	41.2898
831.027	46.7531
833.965	61.9484
836.9	55.8795
839.834	83.4304
842.769	100.279
845.701	143.61
848.632	185.659
851.562	228.259
854.491	243.749
857.419	282.864
860.347	354.902
863.273	415.396
866.196	509.171
869.121	576.304
872.044	583.435
874.966	481.198
877.886	349.943
880.807	231.015
883.726	167.546
886.643	103.775
889.561	96.9147
892.475	79.7755
895.389	64.0487
898.304	64.0065
901.216	78.1815
904.127	66.4055
907.037	72.7803
909.948	64.941
912.856	78.6761
915.764	85.7072
918.67	89.8489
921.575	79.4397
924.479	80.0215
927.381	59.9063
930.284	55.3413
933.185	48.976
936.086	66.7935
938.983	56.4149
941.882	32.9784
944.78	51.6935
947.675	36.9054
950.571	50.1533
953.464	51.6277
956.358	41.3064
959.249	41.1381
962.139	40.2739
965.028	21.8411
967.919	24.9752
970.806	13.6067
973.693	8.05737
976.578	6.8667
979.463	-19.1248
982.346	8.45068
985.229	5.32788
988.111	1.4436
990.992	-9.31152
993.87	-9.81165
996.749	9.64722
999.627	2.03589
1002.5	-8.84949
1005.38	0.216675
1008.25	12.4985
1011.13	14.3806
1014	15.7722
1016.87	38.7534
1019.74	46.0923
1022.61	74.0714
1025.48	79.5824
1028.35	89.5696
1031.21	134.428
1034.08	168.719
1036.94	185.054
1039.8	217.058
1042.67	212.384
1045.53	194.767
1048.39	155.6
1051.25	111.86
1054.1	95.4406
1056.96	91.1802
1059.82	76.1176
1062.67	56.6222
1065.53	51.6953
1068.38	39.4435
1071.23	39.1753
1074.08	57.0663
1076.93	65.8738
1079.78	98.9381
1082.63	120.263
1085.48	150.843
1088.32	170.3
1091.17	206.6
1094.01	212.317
1096.85	218.116
1099.7	215.5
1102.54	199.817
1105.38	174.292
1108.21	167.946
1111.05	140.91
1113.89	140.554
1116.72	143.34
1119.56	165.825
1122.39	190.368
1125.23	209.837
1128.06	196.31
1130.89	174.912
1133.72	164.272
1136.55	128.631
1139.37	94.2662
1142.2	66.4824
1145.03	24.2205
1147.85	21.9774
1150.67	1.37769
1153.5	-7.88013
1156.32	0.424316
1159.14	-7.69397
1161.96	-1.7334
1164.78	12.4253
1167.6	39.171
1170.41	27.462
1173.23	63.3575
1176.04	52.6724
1178.86	65.7205
1181.67	47.6964
1184.48	51.234
1187.29	18.5415
1190.1	-0.679077
1192.91	4.47119
1195.72	-3.14014
1198.52	-9.04895
1201.33	7.79993
1204.13	2.04333
1206.94	9.6106
1209.74	7.88257
1212.54	17.0588
1215.34	19.739
1218.14	16.9802
1220.94	-0.208984
1223.74	4.87524
1226.54	20.2102
1229.33	1.38696
1232.13	-2.02466
1234.92	-3.25317
1237.71	12.3464
1240.5	19.9451
1243.3	34.7458
1246.09	32.2632
1248.87	27.2297
1251.66	31.5276
1254.45	39.5806
1257.23	41.6018
1260.02	67.4617
1262.8	108.225
1265.59	169.819
1268.37	202.018
1271.15	264.872
1273.93	287.694
1276.71	295.2
1279.48	288.255
1282.26	290.242
1285.04	289.629
1287.81	330.951
1290.58	336.442
1293.36	352.579
1296.13	354.85
1298.9	318.87
1301.67	292.206
1304.44	246.619
1307.21	207.677
1309.98	179.471
1312.74	147.136
1315.51	114.744
1318.27	98.2134
1321.03	95.9783
1323.8	68.5046
1326.56	65.1816
1329.32	48.8262
1332.08	50.6045
1334.83	49.5791
1337.59	65.9983
1340.35	66.4573
1343.1	69.7927
1345.86	64.9446
1348.61	81.0757
1351.36	90.6609
1354.11	86.2253
1356.86	88.7302
1359.61	83.6558
1362.36	86.6228
1365.11	88.8438
1367.86	86.9514
1370.6	93.7307
1373.35	85.4673
1376.09	113.24
1378.83	138.434
1381.57	163.867
1384.31	170.76
1387.05	149.211
1389.79	125.862
1392.53	95.3135
1395.27	101.426
1398	87.3169
1400.74	60.4946
1403.47	55.0647
1406.2	60.0193
1408.94	58.7241
1411.67	68.2126
1414.4	78.3972
1417.12	79.5679
1419.85	84.5708
1422.58	103.887
1425.31	123.349
1428.03	145.322
1430.75	157.23
1433.48	194.828
1436.2	226.893
1438.92	273.882
1441.64	312.166
1444.36	380.301
1447.08	415.632
1449.79	441.765
1452.51	433.377
1455.23	427.169
1457.94	389.488
1460.66	313.267
1463.37	255.184
1466.08	218.67
1468.79	169.311
1471.5	126.602
1474.21	100.614
1476.92	88.7488
1479.62	67.9187
1482.33	47.0881
1485.03	37.8359
1487.74	32.1477
1490.44	27.9258
1493.14	17.1343
1495.84	8.15845
1498.54	12.0857
1501.24	10.3975
1503.94	10.8938
1506.63	-0.850098
1509.33	3.24121
1512.03	7.71411
1514.72	0.972656
1517.41	2.74585
1520.11	9.41089
1522.8	4.64014
1525.49	8.81226
1528.18	-4.3811
1530.87	8.03247
1533.55	-4.36938
1536.24	4.70947
1538.93	-4.84204
1541.61	14.2842
1544.29	14.4092
1546.98	-9.24512
1549.66	15.7407
1552.34	14.25
1555.02	7.58838
1557.7	22.3579
1560.38	16.9873
1563.05	10.9084
1565.73	13.3577
1568.4	16.4031
1571.08	9.33374
1573.75	25.0313
1576.42	26.2922
1579.09	21.1536
1581.77	24.2087
1584.43	24.3906
1587.1	32.6895
1589.77	45.0183
1592.44	55.7678
1595.1	83.4409
1597.77	140.678
1600.43	233.885
1603.09	359.207
1605.76	548.208
1608.42	719.363
1611.08	839.371
1613.74	796.129
1616.39	624.561
1619.05	394.304
1621.71	217.966
1624.36	116.473
1627.02	64.5515
1629.67	21.4797
1632.32	21.1057
1634.97	26.2432
1637.62	3.03687
1640.27	8.0647
1642.92	0.126709
1645.57	1.0376
1648.22	0.134766
1650.86	-1.6272
1653.51	4.20264
1656.15	-11.218
1658.79	4.10376
1661.44	7.09277
1664.08	7.07349
1666.72	9.27832
1669.36	8.9375
1671.99	8.72437
1674.63	-4.31714
1677.27	15.938
1679.9	8.81519
1682.54	13.634
1685.17	5.8645
1687.81	23.1716
1690.44	-3.58667
1693.07	10.2327
1695.7	23.4814
1698.33	39.9919
1700.96	65.3884
1703.58	117.906
1706.21	213.56
1708.83	329.727
1711.46	440.111
1714.08	545.152
1716.7	582.95
1719.32	568.084
1721.94	493.232
1724.56	457.873
1727.18	377.488
1729.8	268.968
1732.42	230.023
1735.03	190.573
1737.65	162.909
1740.26	143.046
1742.88	134.984
1745.49	147.27
1748.1	159.878
1750.71	163.609
1753.32	186.713
1755.93	179.533
1758.53	198.994
1761.14	213.01
1763.75	223.809
1766.35	256.429
1768.96	267.74
1771.56	254.747
1774.16	249.877
1776.76	206.888
1779.36	160.354
1781.96	116.54
1784.56	74.0908
1787.16	58.7446
1789.75	38.604
1792.35	46.0901
1794.94	29.5601
1797.54	10.1038
1800.13	23.9031
1802.72	20.8193
1805.31	9.85449
1807.9	-3.57446
1810.49	8.92822
1813.08	11.7493
1815.67	-9.1897
1818.25	-4.90967
1820.84	-5.70874
1823.42	3.24292
1826.01	-8.17432
1828.59	-2.81396
1831.17	-12.5925
1833.75	-13.4602
1836.33	-18.9421
1838.91	-1.58398
1841.49	-8.62695
1844.07	-32.9282
1846.64	-10.9524
1849.22	-9.97705
1851.79	-3.46826
1854.36	-12.6135
1856.94	-15.7185
1859.51	-38.3811
1862.08	-18.0669
1864.65	-23.0444
1867.22	-23.144
1869.79	-19.7729
1872.35	-20.5842
1874.92	-14.9451
1877.49	-29.4031
1880.05	-7.00391
1882.61	-10.1824
1885.18	-12.5598
1887.74	-2.85938
1890.3	-7.81226
1892.86	-3.52661
1895.42	-11.9185
1897.97	-3.73438
1900.53	1.4021
1903.09	-13.5393
1905.64	-16.7109
1908.2	-16.8789
1910.75	-1.83667
1913.3	-12.0591
1915.86	-5.5813
1918.41	-13.5896
1920.96	-14.5061
1923.5	-14.0498
1926.05	-27.9143
1928.6	-11.9565
1931.15	-4.04346
1933.69	-17.4619
1936.24	-33.8701
1938.78	-23.3989
1941.32	-13.895
1943.86	-17.5313
1946.4	-18.3262
1948.94	-30.0671
1951.48	-14.0444
1954.02	-13.1086
1956.56	-29.6465
1959.09	-24.2454
1961.63	-33.0347
1964.16	-26.5288
1966.7	-29.1233
1969.23	-28.5051
1971.76	-39.1194
1974.29	-18.179
1976.82	-38.2019
1979.35	-25.7888
1981.88	-22.1797
1984.41	-27.2903
1986.93	-22.2195
1989.46	-25.3005
1991.98	-31.614
1994.51	-17.6421
1997.03	-7.12207
1999.55	-1.74243
2002.07	-33.5676
2004.59	-6.55518
2007.11	-21.7627
2009.63	-13.1675
2012.15	-18.2546
2014.66	-2.83936
2017.18	-22.156
2019.69	-21.8833
2022.21	-10.9136
2024.72	-10.5723
2027.23	-5.30493
2029.75	-1.73145
2032.26	-5.07129
2034.77	-5.73877
2037.27	-3.29541
2039.78	-7.02832
2042.29	0.153809
2044.79	3.16553
2047.3	3.90601
2049.8	-7.69995
2052.31	1.22998
2054.81	-0.37793
2057.31	-1.05688
2059.81	-6.28564
2062.31	-13.7893
2064.81	8.44824
2067.31	-3.61475
2069.8	-7.18433
2072.3	9.06445
2074.79	-10.3438
2077.29	-14.5725
2079.78	-21.5354
2082.27	-13.5317
2084.77	-10.2527
2087.26	-8.03052
2089.75	-12.939
2092.24	-16.6069
2094.72	-9.71655
2097.21	-17.4094
2099.7	-6.29175
2102.18	-12.4185
2104.67	-25.6536
2107.15	-30.8137
2109.63	-22.8896
2112.11	-7.97217
2114.6	-21.3425
2117.08	-17.1924
2119.56	9.63892
2122.03	-0.725098
2124.51	-5.68188
2126.99	2.23633
2129.46	-2.78882
2131.94	-6.9436
2134.41	0.917236
2136.89	-10.5505
2139.36	4.62061
2141.83	-6.73657
2144.3	5.0144
2146.77	7.36353
2149.24	14.814
2151.71	8.66528
2154.17	12.8362
2156.64	-6.73364
2159.1	20.3547
2161.57	15.5352
2164.03	0.399902
2166.49	10.7393
2168.96	31.0798
2171.42	29.8357
2173.88	32.991
2176.34	11.9204
2178.79	5.58105
2181.25	11.9202
2183.71	5.57349
2186.16	13.5852
2188.62	22.2456
2191.07	27.2305
2193.53	23.6177
2195.98	18.3774
2198.43	-0.547119
2200.88	15.7021
2203.33	31.1121
2205.78	15.7795
2208.23	17.5256
2210.67	-1.05884
2213.12	7.96924
2215.56	11.2666
2218.01	-2.15503
2220.45	2.59619
2222.89	1.07227
2225.33	14.4399
2227.78	-0.48999
2230.22	4.50171
2232.66	3.12671
2235.09	-8.76123
2237.53	11.5549
2239.97	1.80005
2242.4	-5.95215
2244.84	1.96533
2247.27	4.97754
2249.7	3.96216
2252.14	-2.99023
2254.57	6.26001
2257	-8.07202
2259.43	4.69043
2261.86	0.440186
2264.28	-3.61133
2266.71	21.3328
2269.14	8.03589
2271.56	-17.6516
2273.99	-4.11182
2276.41	10.9346
2278.83	13.1829
2281.26	-9.052
2283.67	-2.96606
2286.1	-13.8857
2288.52	18.1592
2290.93	13.2854
2293.35	2.06494
2295.77	7.87402
2298.18	8.57495
2300.6	-1.49048
2303.01	-6.80981
2305.43	8.23291
2307.84	3.16235
2310.25	15.8662
2312.66	0.576172
2315.07	12.4143
2317.48	0.211426
2319.89	-14.7048
2322.29	11.647
2324.7	15.8484
2327.11	2.41309
2329.51	14.5815
2331.91	-6.63208
2334.32	1.57617
2336.72	-0.61792
2339.12	-7.20972
2341.52	-5.76318
2343.92	-0.936768
2346.32	1.00586
2348.72	-2.854
2351.11	-6.50024
2353.51	4.7124
2355.91	-3.62427
2358.3	-6.74756
2360.69	1.42236
2363.09	6.33716
2365.48	4.93774
2367.87	8.75488
2370.26	8.17627
2372.65	2.94922
2375.04	-0.749512
2377.42	-3.00342
2379.81	-2.90649
2382.2	-5.04126
2384.58	10.6633
2386.97	14.5789
2389.35	-16.6306
2391.73	1.34424
2394.11	-15.5042
2396.5	3.17358
2398.87	3.60669
2401.25	4.95361
2403.63	-11.5442
2406.01	-12.3755
2408.39	0.0158691
2410.76	4.75879
2413.14	9.08813
2415.51	6.9707
2417.89	-15.7275
2420.26	9.20215
2422.63	8.71289
2425	-4.78662
2427.37	-6.03198
2429.74	7.39624
2432.11	5.60986
2434.47	14.9573
2436.84	-0.223145
2439.21	-3.82544
2441.57	3.86914
2443.93	5.66797
2446.3	-23.2158
2448.66	12.7456
2451.02	0.733398
2453.38	-7.82129
2455.74	2.47217
2458.1	-1.3623
2460.46	-2.40356
2462.82	1.77466
2465.17	-2.98291
2467.53	-13.5674
2469.88	-6.48071
2472.24	0.946045
2474.59	1.55591
2476.94	-1.77637
2479.29	-3.22852
2481.64	9.48975
2483.99	3.36914
2486.34	0.424561
2488.69	25.5232
2491.04	-5.25
2493.38	11.6497
2495.73	-3.4292
2498.08	2.76733
2500.42	2.78711
2502.76	14.5813
2505.11	-12.8845
2507.45	-4.71753
2509.79	10.6829
2512.13	15.4338
2514.47	-2.19556
2516.8	6.26416
2519.14	1.06226
2521.48	2.7937
2523.81	-4.39282
2526.15	0.759766
2528.48	-0.45166
2530.81	-9.31128
2533.15	-0.595215
2535.48	8.51685
2537.81	-2.35693
2540.14	7.46851
2542.47	-7.51953
2544.8	7.96216
2547.12	-4.29004
2549.45	11.2295
2551.77	5.78271
2554.1	-10.0564
2556.42	8.16724
2558.75	8.32544
2561.07	-2.38086
2563.39	6.88379
2565.71	7.54224
2568.03	9.48608
2570.35	-3.07959
2572.67	11.0037
2574.99	-13.6714
2577.3	4.93604
2579.62	10.9155
2581.93	4.69165
2584.25	1.6355
2586.56	-3.65796
2588.87	9.51147
2591.19	1.96899
2593.5	7.30249
2595.81	2.12183
2598.11	10.7693
2600.42	1.83887
2602.73	-6.9126
2605.04	-1.63843
2607.34	-1.98438
2609.65	1.36401
2611.95	6.64844
2614.26	-3.40039
2616.56	10.9626
2618.86	-10.9114
2621.16	4.46021
2623.46	-1.1394
2625.76	5.74634
2628.06	15.0569
2630.36	8.29639
2632.65	14.6631
2634.95	17.6995
2637.25	15.1973
2639.54	12.2798
2641.83	-3.20264
2644.13	10.9197
2646.42	-3.81555
2648.71	-5.13611
2651	8.08545
2653.29	19.4836
2655.58	6.47961
2657.87	9.31897
2660.15	13.9761
2662.44	34.5435
2664.72	37.5228
2667.01	25.9806
2669.29	29.4473
2671.58	18.6006
2673.86	35.4492
2676.14	41.491
2678.42	39.446
2680.7	32.2307
2682.98	32.1564
2685.26	16.7432
2687.54	17.6941
2689.81	20.3085
2692.09	-3.51831
2694.36	10.4408
2696.64	-12.713
2698.91	14.2251
2701.18	-1.51013
2703.45	-6.29517
2705.72	-5.91321
2707.99	5.05017
2710.26	8.53979
2712.53	1.56677
2714.8	9.08411
2717.07	10.3159
2719.33	4.3324
2721.6	13.6584
2723.86	12.8475
2726.13	35.233
2728.39	37.1038
2730.65	42.3778
2732.91	44.1486
2735.17	55.2435
2737.43	62.0115
2739.69	69.6278
2741.95	68.348
2744.21	70.7241
2746.46	73.4535
2748.72	63.7692
2750.97	77.4863
2753.23	63.204
2755.48	53.5864
2757.73	54.0448
2759.98	49.1218
2762.24	49.4564
2764.49	41.2488
2766.73	35.4575
2768.98	30.8049
2771.23	28.9388
2773.48	29.4264
2775.72	25.8918
2777.97	33.5315
2780.21	28.3668
2782.46	26.1539
2784.7	19.4133
2786.94	19.6173
2789.18	18.3987
2791.42	1.42773
2793.66	1.3418
2795.9	9.15186
2798.14	3.37769
2800.38	3.07349
2802.61	0.942993
2804.85	-1.77539
2807.08	-5.80322
2809.32	-4.14209
2811.55	-4.38757
2813.78	-5.19788
2816.02	-11.7207
2818.25	-12.3729
2820.48	-17.0752
2822.71	-14.6046
2824.94	-9.86523
2827.16	-10.4843
2829.39	-15.9434
2831.61	-9.72546
2833.84	-5.21179
2836.06	-10.2532
2838.29	-9.03149
2840.51	4.11084
2842.73	11.3612
2844.96	20.3289
2847.18	37.109
2849.4	54.5648
2851.61	66.6086
2853.83	88.5485
2856.05	101.674
2858.27	111.96
2860.48	139.11
2862.7	169.468
2864.91	197.676
2867.13	234.199
2869.34	294.247
2871.55	343.369
2873.76	399.465
2875.97	461.18
2878.18	506.998
2880.39	531.244
2882.6	527.318
2884.81	522.386
2887.01	523.721
2889.22	531.88
2891.42	549.55
2893.63	557.155
2895.83	591.798
2898.03	615.335
2900.23	637.306
2902.43	654.431
2904.63	679.413
2906.83	709.142
2909.03	750.174
2911.09	792.21
2913.31	826.279
2915.54	881.214
2917.76	954.571
2919.99	1006.66
2922.21	1070.92
2924.43	1139.37
2926.65	1206.19
2928.87	1299.67
2931.09	1409.63
2933.31	1566.19
2935.53	1807.05
2937.75	2113.32
2939.97	2452.36
2942.18	2726.42
2944.4	2894.77
2946.61	2846.97
2948.83	2688.17
2951.04	2417.38
2953.25	2138.3
2955.47	1851.5
2957.68	1619.86
2959.89	1467.43
2962.1	1328.98
2964.31	1205.36
2966.52	1115.95
2968.73	1015.46
2970.93	918.18
2973.14	843.181
2975.35	780.059
2977.55	751.879
2979.76	687.006
2981.96	653.72
2984.16	663.331
2986.37	666.085
2988.57	736.643
2990.77	793.894
2992.97	890.021
2995.17	967.726
2997.37	1017.06
2999.57	1027.44
3001.77	1029.69
3003.96	977.827
3006.16	923.481
3008.36	856.395
3010.55	778.886
3012.75	714.658
3014.94	616.794
3017.13	542.98
3019.32	458.664
3021.52	364.305
3023.71	316.45
3025.9	267.472
3028.09	211.116
3030.28	165.461
3032.46	138.054
3034.65	101.553
3036.84	90.8782
3039.02	72.7997
3041.21	69.5226
3043.39	42.3276
3045.58	48.3406
3047.76	39.03
3049.94	50.3586
3052.13	31.3876
3054.31	48.276
3056.49	50.3737
3058.67	63.9174
3060.85	98.3672
3063.03	123.041
3065.2	131.752
3067.38	151.816
3069.56	169.211
3071.73	177.575
3073.91	204.803
3076.08	238.286
3078.26	244.991
3080.43	253.381
3082.6	231.03
3084.77	190.87
3086.95	164.861
3089.12	118.961
3091.29	104.513
3093.46	71.6115
3095.62	52.1858
3097.79	36.786
3099.96	37.1766
3102.12	22.0432
3104.29	26.0125
3106.45	16.5446
3108.62	17.1791
3110.78	9.03979
3112.95	14.7592
3115.11	6.82813
3117.27	3.30603
3119.43	1.19922
3121.59	-4.81238
3123.75	4.37769
3125.91	-1.703
3128.07	2.23853
3130.22	12.3145
3132.38	-2.52112
3134.54	-3.47546
3136.69	-7.46753
3138.85	-3.4248
3141	15.776
3143.16	-3.99707
3145.31	1.49841
3147.46	2.42371
3149.61	5.87073
3151.76	1.36646
3153.91	3.80286
3156.06	4.24634
3158.21	5.43433
3160.36	-2.69312
3162.51	12.1429
3164.65	10.0586
3166.8	-1.88831
3168.94	10.9618
3171.09	3.60938
3173.23	2.01892
3175.38	-3.55042
3177.52	-8.88879
3179.66	-9.71667
3181.8	2.92017
3183.94	11.601
3186.08	7.38855
3188.22	7.93091
3190.36	5.17444
3192.5	7.62939
3194.63	0.574707
3196.77	4.55847
3198.91	9.88647
3201.04	5.43481
3203.18	-0.989624
3205.31	9.55029
3207.44	2.89563
3209.58	11.238
3211.71	19.5747
3213.84	16.7955
3215.97	10.5957
3218.1	12.8518
3220.23	24.0834
3222.36	22.5487
3224.49	14.2089
3226.61	31.9745
3228.74	24.9634
3230.87	-1.49805
3232.99	17.9882
3235.11	9.69324
3237.24	1.85107
3239.36	-5.26416
3241.48	10.5693
3243.61	-6.99817
3245.73	4.16357
3247.85	-10.4597
3249.97	-4.84558
3252.09	-7.20569
3254.2	-9.43445
3256.32	-5.505
3258.44	-7.27258
3260.56	-5.37866
3262.67	-5.03198
3264.79	-3.88245
3266.9	-5.68652
3269.02	-5.28528
3271.13	-24.9247
3273.24	-7.59277
3275.35	-16.6429
3277.46	-12.577
3279.57	-14.4733
3281.68	-13.4584
3283.79	-23.8557
3285.9	-22.401
3288.01	-10.7813
3290.12	-14.5756
3292.22	-9.64111
3294.33	-13.0005
3296.43	-18.9828
3298.54	-10.2461
3300.64	-13.6625
3302.75	-13.0554
3304.85	-16.418
3306.95	-12.063
3309.05	-8.49377
3311.15	-9.44421
3313.25	-6.91675
3315.35	0.356201
3317.45	-0.599609
3319.55	-4.31067
3321.65	-11.5682
3323.74	-0.574341
3325.84	-15.1307
3327.93	-8.70947
3330.03	0.890503
3332.12	-4.59583
3334.21	8.65698
3336.31	-17.6519
3338.4	-12.118
3340.49	-13.3358
3342.58	-20.3801
3344.67	-24.4121
3346.76	-23.3445
3348.85	-18.1537
3350.94	-36.2534
3353.02	-9.48889
3355.11	-18.8552
3357.2	-17.1312
3359.28	-7.65283
3361.37	4.90552
3363.45	3.47559
3365.53	-0.00952148
3367.62	1.02026
3369.7	-6.38196
3371.78	-3.17236
3373.86	2.1554
3375.94	-0.797607
3378.02	-6.25439
3380.1	-9.04199
3382.18	4.34814
3384.25	-8.6073
3386.33	-6.74915
3388.41	-8.28418
3390.48	0.510864
3392.56	-7.24304
3394.63	-0.516479
3396.71	0.269897
3398.78	-14.8513
3400.85	-3.91016
3402.92	4.78357
3404.99	-11.3684
3407.06	-8.12585
3409.13	3.72363
3411.2	-13.7434
3413.27	-7.62756
3415.34	-2.46509
3417.4	4.91626
3419.47	-3.56396
3421.54	1.95386
3423.6	-0.682983
3425.67	-2.59302
3427.73	2.95093
3429.79	-5.75696
3431.86	12.026
3433.92	-10.1053
3435.98	4.2074
3438.04	-7.30652
3440.1	-2.87305
3442.16	-16.1881
3444.22	-3.21008
3446.27	2.30359
3448.33	-3.54956
3450.39	2.65918
3452.44	6.60706
3454.5	3.9801
3456.55	-1.8374
3458.61	0.0422363
3460.66	-3.09448
3462.71	-8.82153
3464.77	9.98169
3466.82	-5.67297
3468.87	1.16553
3470.92	1.05798
3472.97	-2.77527
3475.02	-6.08936
3477.06	-8.06201
3479.11	3.64795
3481.16	-8.33398
3483.2	1.41809
3485.25	0.917114
3487.3	4.94067
3489.34	-6.33521
3491.38	-8.42651
3493.43	4.5144
3495.47	-1.46497
3497.51	7.65283
3499.55	-2.27661
