200.057	-32.2845
203.219	-16.6551
206.378	-1.7147
209.539	-11.4054
212.696	8.92446
215.854	20.7087
219.009	14.0143
222.165	31.7012
225.318	18.9559
228.472	58.4306
231.622	44.8317
234.774	44.4079
237.923	45.4172
241.07	25.6926
244.217	30.2684
247.364	18.4914
250.508	15.9776
253.652	12.1344
256.794	15.4476
259.937	2.54516
263.077	-3.89107
266.216	-2.38931
269.354	-8.74824
272.491	19.3433
275.626	32.0874
278.761	49.6547
281.895	70.5011
285.027	98.5936
288.159	147.952
291.287	182.875
294.417	182.646
297.545	190.491
300.672	208.056
303.799	190.539
306.922	175.516
310.046	160.412
313.169	137.064
316.289	112.814
319.41	90.4311
322.528	61.6052
325.647	53.8689
328.764	35.8129
331.879	37.5045
334.993	29.6408
338.107	33.2712
341.219	43.9567
344.332	41.7645
347.441	53.8239
350.549	73.321
353.659	93.2171
356.765	114.491
359.87	117.718
362.975	113.33
366.078	79.5442
369.18	86.9168
372.281	62.3118
375.383	75.5203
378.482	90.7592
381.58	120.642
384.675	151.171
387.771	205.98
390.865	270.563
393.959	301.793
397.052	312.907
400.144	310.68
403.234	342.701
406.322	330.099
409.411	318.706
412.498	285.242
415.583	208.895
418.668	147.834
421.75	124.168
424.834	88.2945
427.916	71.1377
430.996	53.0376
434.074	44.0101
437.153	16.7687
440.229	13.2473
443.306	5.69044
446.381	-6.0054
449.454	15.0679
452.526	-19.6984
455.599	-6.81571
458.669	-16.666
461.738	-17.0404
464.806	-12.5465
467.873	-11.2787
470.939	-2.51706
474.004	-1.82124
477.067	-11.887
480.13	-4.40881
483.192	-7.25906
486.253	1.1159
489.313	-1.40401
492.369	22.4273
495.427	14.5281
498.484	31.0089
501.54	22.6784
504.592	39.2331
507.646	41.6421
510.698	33.3198
513.748	28.0037
516.799	30.1031
519.846	4.82269
522.895	-0.67533
525.94	-0.00447591
528.985	1.97526
532.03	10.3223
535.073	-1.08224
538.114	4.90966
541.157	-3.49041
544.196	5.19466
547.234	1.10358
550.272	-2.71401
553.308	2.30128
556.344	10.9538
559.378	3.92156
562.411	12.6587
565.444	21.2092
568.475	38.0012
571.505	18.5734
574.535	23.8167
577.563	33.2351
580.588	45.4614
583.615	35.7056
586.64	28.7998
589.662	30.906
592.686	25.4875
595.708	15.4116
598.727	27.4084
601.747	12.6879
604.765	-1.07571
607.783	3.56054
610.798	1.74402
613.813	-7.97871
616.828	3.01631
619.84	-0.982534
622.851	13.8162
625.862	54.5278
628.873	72.7068
631.881	70.0306
634.889	49.9588
637.895	44.8758
640.9	30.9305
643.904	38.3304
646.908	42.8372
649.91	44.2984
652.909	49.7897
655.91	57.3232
658.909	72.3607
661.907	79.312
664.903	101.442
667.899	143.556
670.895	176.05
673.887	187.642
676.88	182.609
679.871	150.639
682.862	116.288
685.851	89.6014
688.84	77.3116
691.827	71.526
694.812	69.579
697.799	85.2718
700.782	93.7828
703.765	76.9369
706.746	88.5132
709.727	63.2928
712.706	61.0784
715.685	29.8721
718.663	19.742
721.639	19.1824
724.615	23.7593
727.59	59.7169
730.563	66.3718
733.536	87.6463
736.506	86.0955
739.477	74.1193
742.446	73.0956
745.413	68.1697
748.381	56.0987
751.346	54.0367
754.312	49.4864
757.275	43.636
760.239	36.4519
763.2	31.6142
766.16	5.98308
769.121	25.5518
772.079	5.66527
775.036	-7.68527
777.992	-13.3837
780.947	-12.7305
783.901	-3.10833
786.855	-24.0798
789.807	-0.824103
792.758	-3.2587
795.709	10.9041
798.658	15.8345
801.606	4.19338
804.554	12.3493
807.498	18.6397
810.444	6.30151
813.388	24.8467
816.33	23.0924
819.273	40.9979
822.212	45.0819
825.153	73.5523
828.091	97.0671
831.027	102.004
833.965	110.429
836.9	105.044
839.834	95.0082
842.769	128.546
845.701	136.075
848.632	183.742
851.562	222.573
854.491	273.488
857.419	360.08
860.347	419.446
863.273	551.999
866.196	692.809
869.121	797.928
872.044	817.242
874.966	702.949
877.886	533.66
880.807	360.565
883.726	246.147
886.643	164.483
889.561	118.395
892.475	100.096
895.389	105.225
898.304	94.965
901.216	86.2362
904.127	94.1142
907.037	88.8007
909.948	87.0101
912.856	104.454
915.764	89.6723
918.67	110.437
921.575	109.162
924.479	114.918
927.381	111.205
930.284	84.1561
933.185	76.8767
936.086	64.5778
938.983	65.7879
941.882	60.5055
944.78	48.7751
947.675	51.2116
950.571	55.5033
953.464	84.9825
956.358	90.558
959.249	83.0075
962.139	69.8143
965.028	44.4393
967.919	24.956
970.806	-3.4674
973.693	-4.96294
976.578	-2.29917
979.463	-31.342
982.346	-7.09491
985.229	-2.80024
988.111	-15.2851
990.992	-26.3426
993.87	-12.2703
996.749	-18.1049
999.627	-22.493
1002.5	-17.5719
1005.38	-6.34345
1008.25	-17.2351
1011.13	-8.53198
1014	1.98418
1016.87	12.9891
1019.74	26.0706
1022.61	62.4601
1025.48	91.4171
1028.35	105.765
1031.21	144.188
1034.08	178.943
1036.94	232.482
1039.8	270.466
1042.67	252.611
1045.53	220.449
1048.39	209.051
1051.25	166.138
1054.1	144.406
1056.96	114.585
1059.82	77.0758
1062.67	80.9118
1065.53	70.844
1068.38	60.4827
1071.23	65.6626
1074.08	64.2438
1076.93	81.4689
1079.78	118.266
1082.63	162.832
1085.48	201.021
1088.32	240.21
1091.17	237.344
1094.01	274.433
1096.85	256.858
1099.7	225.776
1102.54	207.329
1105.38	184.967
1108.21	159.464
1111.05	142.995
1113.89	154.821
1116.72	191.488
1119.56	238.305
1122.39	286.63
1125.23	310.891
1128.06	290.421
1130.89	293.492
1133.72	258.189
1136.55	211.444
1139.37	158.373
1142.2	120.163
1145.03	81.0323
1147.85	51.8083
1150.67	29.6198
1153.5	20.1869
1156.32	6.30455
1159.14	-7.01749
1161.96	7.20049
1164.78	4.57779
1167.6	23.9115
1170.41	37.2297
1173.23	68.5597
1176.04	69.7304
1178.86	69.7463
1181.67	62.5756
1184.48	57.8279
1187.29	44.2798
1190.1	11.7676
1192.91	14.3361
1195.72	8.49449
1198.52	14.5991
1201.33	25.0311
1204.13	31.0866
1206.94	27.7315
1209.74	35.3358
1212.54	56.9003
1215.34	60.9587
1218.14	51.094
1220.94	55.3274
1223.74	54.1576
1226.54	19.9327
1229.33	38.3723
1232.13	32.1497
1234.92	19.4543
1237.71	33.1554
1240.5	47.1748
1243.3	49.592
1246.09	40.6117
1248.87	51.8877
1251.66	39.0952
1254.45	66.3795
1257.23	66.5715
1260.02	83.0235
1262.8	112.169
1265.59	129.18
1268.37	184.534
1271.15	166.035
1273.93	191.764
1276.71	196.104
1279.48	217.533
1282.26	238.455
1285.04	279.094
1287.81	300.942
1290.58	353.133
1293.36	373.143
1296.13	393.928
1298.9	387.216
1301.67	366.838
1304.44	335.162
1307.21	272.578
1309.98	225.528
1312.74	168.743
1315.51	150.259
1318.27	120.945
1321.03	116.256
1323.8	92.8585
1326.56	74.0089
1329.32	88.5712
1332.08	100.769
1334.83	87.813
1337.59	96.0963
1340.35	77.4902
1343.1	95.2709
1345.86	111.574
1348.61	104.743
1351.36	99.9472
1354.11	122.028
1356.86	135.627
1359.61	132.864
1362.36	134.461
1365.11	122.901
1367.86	116.41
1370.6	110.338
1373.35	107.077
1376.09	125.428
1378.83	145.898
1381.57	172.857
1384.31	180.03
1387.05	174.719
1389.79	178.468
1392.53	141.984
1395.27	116.864
1398	84.8682
1400.74	76.6827
1403.47	84.7787
1406.2	74.7652
1408.94	93.2834
1411.67	100.165
1414.4	111.357
1417.12	123.103
1419.85	148.742
1422.58	176.227
1425.31	182.762
1428.03	214.293
1430.75	235.384
1433.48	263.995
1436.2	313.65
1438.92	352.631
1441.64	401.484
1444.36	474.509
1447.08	546.071
1449.79	572.018
1452.51	606.671
1455.23	580.054
1457.94	520.356
1460.66	453.867
1463.37	381.03
1466.08	306.167
1468.79	267.741
1471.5	216.413
1474.21	206.756
1476.92	156.706
1479.62	113.916
1482.33	96.1896
1485.03	74.0717
1487.74	64.075
1490.44	52.3358
1493.14	26.5543
1495.84	40.4437
1498.54	21.6245
1501.24	41.7461
1503.94	29.282
1506.63	16.2394
1509.33	11.6563
1512.03	14.8386
1514.72	16.4591
1517.41	8.19275
1520.11	18.5999
1522.8	6.60158
1525.49	13.0771
1528.18	11.1633
1530.87	23.3715
1533.55	3.64142
1536.24	4.10783
1538.93	21.3421
1541.61	8.38077
1544.29	33.0226
1546.98	11.869
1549.66	34.0821
1552.34	11.1632
1555.02	24.8482
1557.7	21.7343
1560.38	36.7855
1563.05	24.4974
1565.73	32.6589
1568.4	16.2136
1571.08	25.1087
1573.75	30.6748
1576.42	28.8227
1579.09	28.1397
1581.77	21.9953
1584.43	34.9261
1587.1	43.167
1589.77	49.2759
1592.44	60.3514
1595.1	74.2646
1597.77	88.5106
1600.43	118.617
1603.09	162.12
1605.76	235.453
1608.42	312.491
1611.08	381.731
1613.74	411.13
1616.39	342.746
1619.05	239.981
1621.71	151.597
1624.36	98.8739
1627.02	57.5346
1629.67	43.2204
1632.32	22.3035
1634.97	46.0876
1637.62	28.5656
1640.27	23.9903
1642.92	21.0581
1645.57	42.2489
1648.22	39.8761
1650.86	45.6799
1653.51	41.6095
1656.15	48.1263
1658.79	26.218
1661.44	25.4558
1664.08	54.6727
1666.72	29.9767
1669.36	33.7964
1671.99	32.0301
1674.63	42.5619
1677.27	40.1158
1679.9	23.1894
1682.54	25.6358
1685.17	32.7573
1687.81	41.6651
1690.44	34.256
1693.07	41.0037
1695.7	32.5234
1698.33	37.6214
1700.96	52.3408
1703.58	72.9949
1706.21	98.8597
1708.83	142.217
1711.46	213.168
1714.08	261.759
1716.7	318.629
1719.32	373.02
1721.94	379.129
1724.56	381.096
1727.18	352.815
1729.8	312.959
1732.42	259.934
1735.03	237.494
1737.65	229.836
1740.26	211.972
1742.88	203.776
1745.49	213.751
1748.1	228.513
1750.71	249.502
1753.32	293.527
1755.93	301.482
1758.53	326.047
1761.14	338.06
1763.75	405.04
1766.35	432.498
1768.96	475.591
1771.56	478.411
1774.16	455.691
1776.76	383.749
1779.36	334.767
1781.96	242.465
1784.56	199.19
1787.16	125.037
1789.75	104.643
1792.35	90.3532
1794.94	66.5292
1797.54	59.714
1800.13	51.437
1802.72	46.2313
1805.31	41.7471
1807.9	45.014
1810.49	38.9586
1813.08	30.3402
1815.67	30.7785
1818.25	19.7183
1820.84	22.5914
1823.42	16.1002
1826.01	29.6989
1828.59	30.1615
1831.17	26.6047
1833.75	22.7964
1836.33	5.23121
1838.91	7.28333
1841.49	15.6873
1844.07	2.13798
1846.64	-9.10603
1849.22	8.91617
1851.79	12.29
1854.36	-3.6702
1856.94	-16.3227
1859.51	-14.721
1862.08	-14.8109
1864.65	-40.6123
1867.22	-48.9676
1869.79	-38.1611
1872.35	-49.2389
1874.92	-19.5909
1877.49	-45.7915
1880.05	-33.9765
1882.61	-14.5442
1885.18	1.38205
1887.74	10.7634
1890.3	7.99479
1892.86	6.88737
1895.42	5.87019
1897.97	18.2369
1900.53	21.8094
1903.09	5.33937
1905.64	17.5489
1908.2	6.94068
1910.75	2.8956
1913.3	13.0178
1915.86	26.4138
1918.41	-2.35771
1920.96	1.44852
1923.5	28.751
1926.05	15.7047
1928.6	4.07312
1931.15	6.62971
1933.69	-4.68066
1936.24	3.29308
1938.78	-2.93111
1941.32	13.7983
1943.86	-15.8074
1946.4	3.63309
1948.94	-3.78544
1951.48	1.57474
1954.02	-7.90767
1956.56	-9.47194
1959.09	-14.3033
1961.63	-5.54897
1964.16	-14.8993
1966.7	-25.7916
1969.23	-19.8646
1971.76	-10.8443
1974.29	-7.95603
1976.82	-36.6185
1979.35	-22.929
1981.88	-18.8631
1984.41	-27.3456
1986.93	-21.5044
1989.46	-19.9649
1991.98	-4.68946
1994.51	-18.2302
1997.03	-0.666824
1999.55	4.08982
2002.07	-6.60579
2004.59	12.2149
2007.11	-0.529932
2009.63	-0.775725
2012.15	5.12905
2014.66	-9.94524
2017.18	0.680394
2019.69	5.20692
2022.21	10.1732
2024.72	8.37274
2027.23	19.5097
2029.75	6.28079
2032.26	15.1428
2034.77	9.11624
2037.27	10.55
2039.78	17.673
2042.29	18.3128
2044.79	19.5116
2047.3	14.9042
2049.8	4.16757
2052.31	16.349
2054.81	18.4685
2057.31	9.90758
2059.81	16.5098
2062.31	4.65852
2064.81	8.32243
2067.31	0.501936
2069.8	6.16374
2072.3	3.94651
2074.79	-6.68614
2077.29	6.73614
2079.78	-15.7122
2082.27	-8.23123
2084.77	-14.281
2087.26	-9.1089
2089.75	-22.9264
2092.24	-4.51053
2094.72	-5.01329
2097.21	2.87189
2099.7	-8.73694
2102.18	3.35682
2104.67	-14.4447
2107.15	-7.98189
2109.63	-18.7504
2112.11	-0.726894
2114.6	-6.70831
2117.08	-0.772786
2119.56	1.44615
2122.03	-2.00183
2124.51	-6.0293
2126.99	2.26978
2129.46	-11.8026
2131.94	-9.73571
2134.41	4.6964
2136.89	1.12834
2139.36	20.9315
2141.83	3.16828
2144.3	-1.74219
2146.77	2.82095
2149.24	0.915264
2151.71	7.18527
2154.17	24.2989
2156.64	9.77981
2159.1	9.97385
2161.57	20.0686
2164.03	15.7659
2166.49	7.54169
2168.96	35.0179
2171.42	15.5934
2173.88	31.2772
2176.34	27.4877
2178.79	21.3153
2181.25	24.6387
2183.71	13.0958
2186.16	20.8868
2188.62	45.1216
2191.07	23.0014
2193.53	34.4849
2195.98	16.2511
2198.43	21.9546
2200.88	17.1143
2203.33	11.6005
2205.78	21.3127
2208.23	16.6619
2210.67	13.1322
2213.12	12.3496
2215.56	30.2768
2218.01	9.76415
2220.45	8.93871
2222.89	15.2768
2225.33	-4.99146
2227.78	7.61779
2230.22	2.84365
2232.66	-1.39878
2235.09	20.2541
2237.53	16.887
2239.97	-8.16619
2242.4	-1.66308
2244.84	-5.29715
2247.27	12.6711
2249.7	9.00547
2252.14	11.0333
2254.57	7.10223
2257	0.1438
2259.43	8.36612
2261.86	-4.43385
2264.28	-5.48706
2266.71	0.817691
2269.14	8.73553
2271.56	15.0334
2273.99	13.2023
2276.41	7.45324
2278.83	7.44691
2281.26	4.80667
2283.67	7.36696
2286.1	19.1173
2288.52	-2.4444
2290.93	14.4278
2293.35	-2.75298
2295.77	17.011
2298.18	3.86305
2300.6	15.614
2303.01	-4.717
2305.43	9.30715
2307.84	21.4449
2310.25	19.8677
2312.66	27.7734
2315.07	13.5375
2317.48	10.5875
2319.89	23.505
2322.29	24.4012
2324.7	9.68765
2327.11	18.145
2329.51	10.2919
2331.91	21.5321
2334.32	16.998
2336.72	28.7425
2339.12	28.0027
2341.52	11.5681
2343.92	20.2892
2346.32	15.3535
2348.72	17.7127
2351.11	32.2402
2353.51	15.5738
2355.91	15.3403
2358.3	22.185
2360.69	16.1359
2363.09	19.3951
2365.48	44.7107
2367.87	27.8276
2370.26	28.0767
2372.65	9.4117
2375.04	42.2817
2377.42	18.5728
2379.81	36.5652
2382.2	33.8918
2384.58	27.6773
2386.97	33.8949
2389.35	44.9905
2391.73	33.1753
2394.11	52.0141
2396.5	51.1058
2398.87	66.9705
2401.25	48.809
2403.63	49.9073
2406.01	55.8899
2408.39	57.9193
2410.76	50.4989
2413.14	48.5715
2415.51	62.2963
2417.89	51.841
2420.26	59.2871
2422.63	57.3791
2425	59.29
2427.37	59.7622
2429.74	53.4922
2432.11	64.5608
2434.47	58.0473
2436.84	63.0647
2439.21	64.7384
2441.57	57.5734
2443.93	47.3094
2446.3	55.4872
2448.66	52.3682
2451.02	66.1054
2453.38	69.384
2455.74	69.2884
2458.1	55.7909
2460.46	65.3226
2462.82	61.5049
2465.17	61.5898
2467.53	75.6298
2469.88	57.6038
2472.24	64.0825
2474.59	65.3673
2476.94	77.7908
2479.29	61.4163
2481.64	92.1836
2483.99	94.3136
2486.34	83.3352
2488.69	76.9705
2491.04	92.4577
2493.38	83.0611
2495.73	78.1392
2498.08	86.0137
2500.42	87.0105
2502.76	98.4333
2505.11	108.19
2507.45	101.081
2509.79	106.666
2512.13	114.068
2514.47	110.047
2516.8	102.051
2519.14	102.157
2521.48	100.381
2523.81	98.4272
2526.15	107.702
2528.48	112.232
2530.81	113.833
2533.15	115.941
2535.48	118.883
2537.81	112.314
2540.14	119.091
2542.47	117.799
2544.8	123.061
2547.12	126.492
2549.45	125.555
2551.77	146.417
2554.1	131.06
2556.42	141.545
2558.75	136.145
2561.07	141.21
2563.39	138.962
2565.71	140.577
2568.03	154.404
2570.35	149.275
2572.67	139.92
2574.99	151.681
2577.3	147.827
2579.62	150.453
2581.93	157.617
2584.25	162.747
2586.56	171.19
2588.87	160.861
2591.19	198.665
2593.5	174.61
2595.81	197.291
2598.11	174.664
2600.42	183.534
2602.73	181.049
2605.04	180.17
2607.34	178.957
2609.65	190.759
2611.95	172.89
2614.26	169.414
2616.56	186.462
2618.86	198.926
2621.16	190.669
2623.46	210.032
2625.76	187.241
2628.06	187.613
2630.36	204.413
2632.65	186.495
2634.95	204.808
2637.25	205.084
2639.54	203.683
2641.83	198.226
2644.13	201.012
2646.42	207.683
2648.71	210.313
2651	204.246
2653.29	224.167
2655.58	218.792
2657.87	222.441
2660.15	227.589
2662.44	222.743
2664.72	233.495
2667.01	226.711
2669.29	233.574
2671.58	231.994
2673.86	217.309
2676.14	223.844
2678.42	241.431
2680.7	232.47
2682.98	226.071
2685.26	251.407
2687.54	240.01
2689.81	234.993
2692.09	230.153
2694.36	260.759
2696.64	249.862
2698.91	256.716
2701.18	269.346
2703.45	267.177
2705.72	270.537
2707.99	265.353
2710.26	270.994
2712.53	267.876
2714.8	232.422
2717.07	244.058
2719.33	240.22
2721.6	236.006
2723.86	239.299
2726.13	249.104
2728.39	258.352
2730.65	247.161
2732.91	254.543
2735.17	257.084
2737.43	269.719
2739.69	273.182
2741.95	272.228
2744.21	253.435
2746.46	269.082
2748.72	252.598
2750.97	243.319
2753.23	242.41
2755.48	221.468
2757.73	224.354
2759.98	217.304
2762.24	202.819
2764.49	173.302
2766.73	176.162
2768.98	165.171
2771.23	152.343
2773.48	131.889
2775.72	128.56
2777.97	127.294
2780.21	107.491
2782.46	110.093
2784.7	84.2871
2786.94	92.1811
2789.18	83.5584
2791.42	64.757
2793.66	52.0854
2795.9	41.2474
2798.14	58.873
2800.38	32.918
2802.61	28.1561
2804.85	19.7996
2807.08	10.642
2809.32	7.9432
2811.55	-9.33521
2813.78	0.580581
2816.02	-11.1156
2818.25	-14.0129
2820.48	-26.0208
2822.71	-11.5565
2824.94	-25.0122
2827.16	-27.3281
2829.39	-19.7546
2831.61	-14.5386
2833.84	-16.3851
2836.06	-4.84187
2838.29	13.0951
2840.51	27.8464
2842.73	41.1499
2844.96	73.8842
2847.18	97.0683
2849.4	133.7
2851.61	158.169
2853.83	166.49
2856.05	176.591
2858.27	188.346
2860.48	193.031
2862.7	205.008
2864.91	220.522
2867.13	256.487
2869.34	322.87
2871.55	398.202
2873.76	484.267
2875.97	560.007
2878.18	624.006
2880.39	672.705
2882.6	694.384
2884.81	693.566
2887.01	690.892
2889.22	680.721
2891.42	682.079
2893.63	694.135
2895.83	714.395
2898.03	752.589
2900.23	785.847
2902.43	815.197
2904.63	860.042
2906.83	906.09
2909.03	945.961
2910.2	967.51
2912.43	1051.19
2914.65	1123.65
2916.88	1198.25
2919.1	1314.11
2921.32	1423.68
2923.54	1505.96
2925.77	1658.87
2927.99	1820.57
2930.21	2020.15
2932.43	2237.14
2934.65	2523.19
2936.86	2856.87
2939.08	3305.58
2941.3	3767.2
2943.51	4092.6
2945.73	4168.36
2947.94	4014.03
2950.16	3638.93
2952.37	3234.28
2954.58	2825.78
2956.79	2455.82
2959.01	2182.95
2961.22	1943.35
2963.43	1779.36
2965.63	1639.29
2967.84	1504.16
2970.05	1351.34
2972.26	1246.19
2974.46	1127.62
2976.67	1063.84
2978.87	983.331
2981.08	906.608
2983.28	886.397
2985.48	883.025
2987.69	915.971
2989.89	978.854
2992.09	1074.67
2994.29	1208.63
2996.49	1296.76
2998.69	1346.79
3000.89	1348.65
3003.08	1336.18
3005.28	1273.67
3007.47	1201.05
3009.67	1114.85
3011.87	1006.7
3014.06	901.454
3016.25	757.853
3018.44	654.371
3020.64	555.738
3022.83	452.617
3025.02	351.116
3027.21	283.804
3029.4	206.488
3031.58	173.834
3033.77	120.605
3035.96	101.525
3038.15	66.7974
3040.33	47.219
3042.52	24.601
3044.7	18.1456
3046.88	5.76619
3049.07	4.73553
3051.25	14.1602
3053.43	-0.914832
3055.61	1.07945
3057.79	-6.57764
3059.97	17.519
3062.15	14.6699
3064.33	25.6787
3066.51	37.0401
3068.68	36.6727
3070.86	39.3969
3073.03	53.2688
3075.21	70.2514
3077.38	67.2607
3079.56	77.553
3081.73	80.8466
3083.9	73.0828
3086.07	52.4417
3088.24	34.3696
3090.41	20.1634
3092.58	19.4391
3094.75	17.3418
3096.92	-6.56898
3099.09	-8.5249
3101.25	4.31317
3103.42	-8.27914
3105.58	-1.50554
3107.75	-2.51128
3109.91	4.58619
3112.07	-1.97278
3114.24	-6.16309
3116.4	-16.5082
3118.56	-2.75089
3120.72	4.56962
3122.88	-1.80527
3125.04	2.30055
3127.2	11.0076
3129.35	9.91406
3131.51	10.746
3133.67	2.3404
3135.82	22.7502
3137.98	15.8275
3140.13	23.7232
3142.29	24.2643
3144.44	29.169
3146.59	28.0229
3148.74	45.0857
3150.9	35.4112
3153.04	40.8769
3155.2	35.1055
3157.34	38.7767
3159.49	43.4991
3161.64	41.2362
3163.79	55.8456
3165.93	51.3803
3168.08	48.5726
3170.22	46.3061
3172.37	50.4906
3174.51	63.0969
3176.65	55.8343
3178.8	74.5501
3180.94	77.2797
3183.08	73.2521
3185.22	66.4957
3187.36	76.2365
3189.5	81.8896
3191.64	80.4422
3193.77	83.2119
3195.91	93.4467
3198.05	83.6953
3200.18	100.917
3202.32	102.989
3204.45	96.9999
3206.58	119.407
3208.72	118.979
3210.85	113.291
3212.98	115.835
3215.11	121.95
3217.24	110.444
3219.37	111.887
3221.5	135.532
3223.63	140.072
3225.76	130.895
3227.88	120.584
3230.01	112.513
3232.13	129.265
3234.26	125.615
3236.38	129.078
3238.51	122.688
3240.63	115.414
3242.75	123.88
3244.87	130.496
3246.99	124.074
3249.11	130.139
3251.23	127.173
3253.35	117.36
3255.47	133.604
3257.59	129.001
3259.7	125.746
3261.82	121.413
3263.93	124.119
3266.05	132.771
3268.16	136.49
3270.28	134.673
3272.39	143.469
3274.5	126.992
3276.61	130.914
3278.72	133.089
3280.84	134.676
3282.94	128.325
3285.05	141.621
3287.16	163.567
3289.27	126.381
3291.38	142.134
3293.48	141.654
3295.59	136.4
3297.69	143.353
3299.8	127.386
3301.9	145.627
3304	142.728
3306.1	151.473
3308.21	140.54
3310.31	143.092
3312.41	140.378
3314.51	136.791
3316.61	138.357
3318.7	140.401
3320.8	146.075
3322.9	155.151
3324.99	150.04
3327.09	161.464
3329.19	154.592
3331.28	157.298
3333.37	149.028
3335.47	160.459
3337.56	153.41
3339.65	143.535
3341.74	152.004
3343.83	148.64
3345.92	157.314
3348.01	153.155
3350.1	141.972
3352.19	155.858
3354.27	158.144
3356.36	152.86
3358.44	157.427
3360.53	149.162
3362.61	154.351
3364.7	143.715
3366.78	148.139
3368.86	140.602
3370.95	138.252
3373.03	146.615
3375.11	133.175
3377.19	144.238
3379.27	142.526
3381.34	140.658
3383.42	139.838
3385.5	145.7
3387.58	150.757
3389.65	143.601
3391.73	143.46
3393.8	137.787
3395.88	144.045
3397.95	139.094
3400.02	129.464
3402.09	132.785
3404.17	133.394
3406.24	126.645
3408.31	124.556
3410.38	123.127
3412.44	118.777
3414.51	132.156
3416.58	111.604
3418.65	120.294
3420.71	111.644
3422.78	111.21
3424.84	112.221
3426.91	103.042
3428.97	107.348
3431.03	99.0864
3433.09	113.457
3435.16	97.4665
3437.22	93.2218
3439.28	98.9532
3441.34	83.8419
3443.4	82.1911
3445.45	81.6997
3447.51	80.5313
3449.57	71.634
3451.63	69.9708
3453.68	76.3499
3455.74	68.4753
3457.79	60.6327
3459.84	61.7696
3461.9	53.8319
3463.95	54.8703
3466	60.5214
3468.05	44.1067
3470.1	42.3543
3472.15	35.7979
3474.2	36.9871
3476.25	23.3356
3478.3	24.8652
3480.35	20.5057
3482.39	24.8197
3484.44	6.10403
3486.48	3.43102
3488.53	10.6903
3490.57	-1.42326
3492.62	-13.183
3494.66	-8.588
3496.7	3.48006
3498.74	-10.5454
