200.057	-12.7793
203.219	2.08813
206.378	5.52972
209.539	3.29462
212.696	8.34821
215.854	15.6185
219.009	13.5137
222.165	18.1672
225.318	23.9131
228.472	33.8071
231.622	34.9459
234.774	22.7092
237.923	32.6464
241.07	32.2426
244.217	22.8917
247.364	26.9163
250.508	14.9824
253.652	14.0847
256.794	6.38202
259.937	20.0729
263.077	5.96979
266.216	20.8124
269.354	22.9767
272.491	19.5412
275.626	31.5599
278.761	59.0311
281.895	62.3041
285.027	84.1978
288.159	98.1568
291.287	119.161
294.417	129.984
297.545	137.434
300.672	153.829
303.799	155.542
306.922	154.242
310.046	126.126
313.169	109.211
316.289	98.5985
319.41	81.0165
322.528	73.6857
325.647	58.8121
328.764	55.6691
331.879	30.8004
334.993	32.5022
338.107	43.8641
341.219	44.6145
344.332	40.6747
347.441	48.8262
350.549	46.5601
353.659	72.3434
356.765	92.6182
359.87	108.931
362.975	79.8303
366.078	64.869
369.18	60.681
372.281	46.9111
375.383	64.0857
378.482	86.0989
381.58	115.824
384.675	158.775
387.771	203.637
390.865	242.437
393.959	256.081
397.052	255.752
400.144	237.919
403.234	227.533
406.322	223.984
409.411	206.996
412.498	160.91
415.583	123.76
418.668	108.97
421.75	72.0034
424.834	67.6329
427.916	54.0901
430.996	27.4321
434.074	32.6809
437.153	17.5103
440.229	3.71667
443.306	10.1851
446.381	-1.7074
449.454	-3.19153
452.526	-8.73279
455.599	-8.51465
458.669	-13.2192
461.738	-10.7075
464.806	-11.3163
467.873	-10.1705
470.939	-14.2289
474.004	-18.162
477.067	-9.40637
480.13	-7.23792
483.192	1.41272
486.253	-2.14978
489.313	3.92468
492.369	18.5557
495.427	20.9659
498.484	27.5284
501.54	28.2094
504.592	42.1069
507.646	39.8992
510.698	34.1171
513.748	22.3705
516.799	17.6095
519.846	4.03979
522.895	0.518677
525.94	4.27002
528.985	2.48022
532.03	1.87061
535.073	6.12695
538.114	0.778931
541.157	4.0658
544.196	-0.696533
547.234	-5.24146
550.272	-10.4265
553.308	0.922363
556.344	2.69958
559.378	6.54224
562.411	3.70886
565.444	1.47363
568.475	13.541
571.505	7.08325
574.535	16.6033
577.563	28.1952
580.588	17.5396
583.615	22.1499
586.64	29.3455
589.662	21.8225
592.686	18.8428
595.708	17.7987
598.727	2.07385
601.747	7.93262
604.765	-1.86218
607.783	1.95422
610.798	-8.56274
613.813	-5.26379
616.828	-9.53503
619.84	-1.48279
622.851	18.0033
625.862	51.4364
628.873	54.6637
631.881	46.4329
634.889	46.9921
637.895	19.3385
640.9	16.4991
643.904	12.7988
646.908	12.9847
649.91	27.2198
652.909	35.0344
655.91	21.8098
658.909	33.2485
661.907	57.486
664.903	75.5524
667.899	111.59
670.895	134.231
673.887	147.916
676.88	133.327
679.871	90.084
682.862	63.285
685.851	51.3767
688.84	59.084
691.827	42.327
694.812	51.6497
697.799	55.547
700.782	49.7539
703.765	54.9294
706.746	50.6036
709.727	48.9843
712.706	35.2455
715.685	21.0488
718.663	18.4609
721.639	12.1017
724.615	17.5969
727.59	32.8658
730.563	50.9929
733.536	52.6338
736.506	65.1166
739.477	60.2046
742.446	62.6426
745.413	45.5787
748.381	55.3734
751.346	30.842
754.312	38.2603
757.275	35.9624
760.239	24.4563
763.2	2.49268
766.16	14.5638
769.121	-0.838989
772.079	5.2113
775.036	-6.75635
777.992	-10.0719
780.947	-9.5874
783.901	-2.26477
786.855	-7.34045
789.807	-1.14343
792.758	4.24036
795.709	7.94336
798.658	6.97412
801.606	1.68701
804.554	10.2283
807.498	13.8052
810.444	12.9545
813.388	20.6107
816.33	23.1605
819.273	41.8948
822.212	51.2457
825.153	66.2048
828.091	79.6565
831.027	92.2108
833.965	93.3317
836.9	86.4213
839.834	93.2142
842.769	112.004
845.701	129.41
848.632	169.385
851.562	216.425
854.491	271.553
857.419	370.249
860.347	454.373
863.273	622.219
866.196	825.263
869.121	950.086
872.044	893.574
874.966	722.827
877.886	496.056
880.807	329.042
883.726	210.688
886.643	156.77
889.561	119.187
892.475	122.937
895.389	98.9259
898.304	91.7135
901.216	96.4783
904.127	89.9867
907.037	94.0083
909.948	85.0238
912.856	87.608
915.764	116.262
918.67	127.973
921.575	118.676
924.479	109.925
927.381	99.5138
930.284	89.6716
933.185	72.365
936.086	65.7178
938.983	63.5071
941.882	59.1857
944.78	42.3192
947.675	57.9877
950.571	73.8527
953.464	81.4756
956.358	84.8521
959.249	85.0588
962.139	68.3838
965.028	35.4961
967.919	8.54419
970.806	18.4178
973.693	3.0824
976.578	-5.43042
979.463	4.43335
982.346	0.67627
985.229	4.76416
988.111	2.82446
990.992	-2.38025
993.87	-4.6366
996.749	-0.911377
999.627	5.39417
1002.5	-5.54956
1005.38	18.5502
1008.25	1.31555
1011.13	11.6553
1014	18.99
1016.87	30.0947
1019.74	51.8179
1022.61	85.9305
1025.48	121.407
1028.35	154.37
1031.21	183.426
1034.08	254.055
1036.94	282.063
1039.8	281.909
1042.67	265.263
1045.53	226.259
1048.39	187.038
1051.25	153.064
1054.1	119.65
1056.96	96.5615
1059.82	75.514
1062.67	78.1689
1065.53	71.3123
1068.38	70.5096
1071.23	63.4681
1074.08	61.7115
1076.93	86.1549
1079.78	109.966
1082.63	134.12
1085.48	182.662
1088.32	210.948
1091.17	236.76
1094.01	246.013
1096.85	228.575
1099.7	196.736
1102.54	174.849
1105.38	154.538
1108.21	133.161
1111.05	143.293
1113.89	154.759
1116.72	190.573
1119.56	218.258
1122.39	264.165
1125.23	280.024
1128.06	278.959
1130.89	246.709
1133.72	224.964
1136.55	174.806
1139.37	143.573
1142.2	104.897
1145.03	73.349
1147.85	48.5864
1150.67	34.8202
1153.5	11.7556
1156.32	23.6699
1159.14	30.1711
1161.96	23.1772
1164.78	26.6605
1167.6	34.4491
1170.41	46.026
1173.23	56.9075
1176.04	59.001
1178.86	67.238
1181.67	66.8297
1184.48	49.2462
1187.29	33.3352
1190.1	35.9838
1192.91	40.4229
1195.72	31.8206
1198.52	45.8436
1201.33	57.0907
1204.13	55.7754
1206.94	67.4294
1209.74	70.8751
1212.54	61.2411
1215.34	60.1117
1218.14	70.4659
1220.94	58.5511
1223.74	42.8658
1226.54	41.3333
1229.33	45.1287
1232.13	50.1587
1234.92	61.5826
1237.71	41.8407
1240.5	49.6969
1243.3	43.6251
1246.09	48.7629
1248.87	54.6403
1251.66	61.4866
1254.45	73.2034
1257.23	73.6371
1260.02	85.6292
1262.8	122.075
1265.59	142.109
1268.37	165.15
1271.15	185.46
1273.93	192.706
1276.71	184.725
1279.48	215.115
1282.26	215.294
1285.04	269.657
1287.81	308.65
1290.58	354.396
1293.36	362.378
1296.13	368.233
1298.9	362.151
1301.67	327.495
1304.44	285.054
1307.21	237.09
1309.98	189.127
1312.74	143.377
1315.51	132.994
1318.27	115.377
1321.03	97.2502
1323.8	97.9513
1326.56	101.491
1329.32	83.364
1332.08	77.6655
1334.83	78.4728
1337.59	81.3685
1340.35	88.5123
1343.1	98.337
1345.86	96.4105
1348.61	108.5
1351.36	114.413
1354.11	128.932
1356.86	134.651
1359.61	144.551
1362.36	148.775
1365.11	146.405
1367.86	150.65
1370.6	143.417
1373.35	121.099
1376.09	146.039
1378.83	159.828
1381.57	198.538
1384.31	225.501
1387.05	217.535
1389.79	214.038
1392.53	159.923
1395.27	130.355
1398	106.075
1400.74	85.8323
1403.47	76.7263
1406.2	100.698
1408.94	85.2852
1411.67	105.869
1414.4	121.69
1417.12	135.218
1419.85	159.259
1422.58	178.609
1425.31	174.216
1428.03	188.953
1430.75	212.838
1433.48	240.324
1436.2	256.286
1438.92	290.891
1441.64	349.623
1444.36	413.7
1447.08	446.991
1449.79	484.11
1452.51	492.153
1455.23	479.448
1457.94	419.91
1460.66	341.206
1463.37	291.276
1466.08	238.999
1468.79	204.486
1471.5	173.705
1474.21	149.184
1476.92	109.903
1479.62	90.1315
1482.33	63.8551
1485.03	55.4226
1487.74	37.8459
1490.44	39.8657
1493.14	11.4259
1495.84	23.1617
1498.54	22.0145
1501.24	15.0604
1503.94	18.3196
1506.63	13.4327
1509.33	2.9729
1512.03	1.94128
1514.72	-15.6304
1517.41	0.867432
1520.11	13.577
1522.8	3.24036
1525.49	-0.654175
1528.18	-5.12622
1530.87	0.850586
1533.55	7.17749
1536.24	-4.42847
1538.93	4.01575
1541.61	4.64526
1544.29	-0.906616
1546.98	-4.37585
1549.66	1.98132
1552.34	1.05383
1555.02	7.00952
1557.7	4.8042
1560.38	2.91821
1563.05	5.7417
1565.73	13.7335
1568.4	9.93762
1571.08	9.27454
1573.75	15.0443
1576.42	11.2317
1579.09	22.974
1581.77	22.3933
1584.43	30.3398
1587.1	17.8804
1589.77	16.7212
1592.44	44.4285
1595.1	63.2648
1597.77	76.0121
1600.43	111.154
1603.09	156.234
1605.76	236.615
1608.42	314.524
1611.08	366.709
1613.74	345.79
1616.39	281.638
1619.05	181.235
1621.71	105.196
1624.36	63.7961
1627.02	35.647
1629.67	20.0953
1632.32	20.2819
1634.97	15.7772
1637.62	31.619
1640.27	16.0306
1642.92	16.2913
1645.57	19.6483
1648.22	30.6969
1650.86	29.9807
1653.51	27.3845
1656.15	26.0615
1658.79	19.3317
1661.44	20.2196
1664.08	27.5382
1666.72	22.3853
1669.36	29.212
1671.99	23.8125
1674.63	27.3237
1677.27	33.4839
1679.9	28.7373
1682.54	21.9055
1685.17	22.7189
1687.81	17.04
1690.44	32.3333
1693.07	24.6499
1695.7	38.4663
1698.33	38.3685
1700.96	51.1997
1703.58	59.173
1706.21	102.091
1708.83	145.751
1711.46	209.175
1714.08	263.419
1716.7	327.586
1719.32	375.43
1721.94	393.238
1724.56	364.768
1727.18	319.309
1729.8	262.461
1732.42	223.582
1735.03	200.907
1737.65	197.2
1740.26	179.228
1742.88	192.001
1745.49	181.449
1748.1	172.962
1750.71	188.925
1753.32	191.033
1755.93	200.438
1758.53	209.189
1761.14	232.78
1763.75	249.182
1766.35	265.667
1768.96	276.103
1771.56	287.146
1774.16	254.916
1776.76	220.777
1779.36	176.207
1781.96	134.803
1784.56	102.963
1787.16	84.0735
1789.75	65.6522
1792.35	49.0657
1794.94	42.2223
1797.54	35.0756
1800.13	45.3347
1802.72	41.3101
1805.31	40.1863
1807.9	34.1261
1810.49	29.7847
1813.08	25.3615
1815.67	21.9709
1818.25	30.6002
1820.84	37.4739
1823.42	17.4307
1826.01	30.9454
1828.59	15.303
1831.17	16.3641
1833.75	4.78442
1836.33	-3.12122
1838.91	20.021
1841.49	3.04553
1844.07	5.32288
1846.64	15.0404
1849.22	11.8197
1851.79	13.3917
1854.36	16.2802
1856.94	13.0144
1859.51	11.1978
1862.08	10.8661
1864.65	-2.27332
1867.22	4.3689
1869.79	-1.90613
1872.35	2.17261
1874.92	-2.69409
1877.49	12.4596
1880.05	2.68701
1882.61	7.16223
1885.18	10.4514
1887.74	7.99768
1890.3	20.4247
1892.86	8.64099
1895.42	12.2822
1897.97	4.79602
1900.53	16.9813
1903.09	9.99036
1905.64	18.2053
1908.2	21.0245
1910.75	17.1458
1913.3	3.67554
1915.86	13.4197
1918.41	16.9526
1920.96	20.4833
1923.5	11.3156
1926.05	14.6245
1928.6	17.0614
1931.15	6.78748
1933.69	-2.43457
1936.24	2.7915
1938.78	5.69324
1941.32	14.417
1943.86	1.10535
1946.4	0.294312
1948.94	-12.4581
1951.48	5.35376
1954.02	-4.22534
1956.56	5.34534
1959.09	0.11792
1961.63	3.49561
1964.16	-1.51147
1966.7	2.03442
1969.23	9.50232
1971.76	-14.7041
1974.29	-12.3948
1976.82	-13.8362
1979.35	-7.77295
1981.88	3.51367
1984.41	-3.49792
1986.93	-2.05261
1989.46	-0.408813
1991.98	12.0739
1994.51	-7.3396
1997.03	-4.30884
1999.55	11.7761
2002.07	9.51099
2004.59	10.2781
2007.11	10.0962
2009.63	6.63403
2012.15	13.1595
2014.66	16.5773
2017.18	6.36133
2019.69	10.2296
2022.21	10.0039
2024.72	11.0656
2027.23	5.50098
2029.75	7.25696
2032.26	15.9353
2034.77	16.3898
2037.27	12.6881
2039.78	6.09595
2042.29	21.7826
2044.79	12.3975
2047.3	10.1886
2049.8	10.3723
2052.31	18.1669
2054.81	18.9357
2057.31	12.678
2059.81	10.4818
2062.31	16.0833
2064.81	21.9473
2067.31	12.2504
2069.8	6.42822
2072.3	7.76282
2074.79	16.2433
2077.29	6.53821
2079.78	17.9637
2082.27	-2.6416
2084.77	2.81104
2087.26	13.2219
2089.75	3.7511
2092.24	-0.872314
2094.72	-3.62598
2097.21	4.65063
2099.7	-7.17395
2102.18	0.610107
2104.67	-1.81824
2107.15	4.1582
2109.63	1.49792
2112.11	-2.92114
2114.6	4.32935
2117.08	3.21094
2119.56	4.31189
2122.03	5.34595
2124.51	8.24756
2126.99	7.25732
2129.46	7.97644
2131.94	12.1179
2134.41	15.5448
2136.89	20.1335
2139.36	9.92041
2141.83	25.29
2144.3	15.0441
2146.77	15.218
2149.24	27.5848
2151.71	15.1791
2154.17	16.3973
2156.64	17.5693
2159.1	15.6953
2161.57	7.47327
2164.03	16.9712
2166.49	13.1119
2168.96	20.7682
2171.42	29.814
2173.88	21.2133
2176.34	29.6604
2178.79	22.6893
2181.25	33.0601
2183.71	16.6738
2186.16	18.5786
2188.62	5.58936
2191.07	28.9928
2193.53	19.7407
2195.98	26.8774
2198.43	20.7777
2200.88	26.269
2203.33	10.4994
2205.78	14.5192
2208.23	18.0535
2210.67	18.4185
2213.12	26.3359
2215.56	16.158
2218.01	24.0801
2220.45	31.2096
2222.89	13.9751
2225.33	19.2035
2227.78	4.27686
2230.22	12.2563
2232.66	16.6107
2235.09	7.2655
2237.53	12.886
2239.97	7.4906
2242.4	3.8186
2244.84	15.5111
2247.27	7.71143
2249.7	-3.87366
2252.14	3.89893
2254.57	6.32776
2257	14.6201
2259.43	6.16016
2261.86	3.38855
2264.28	3.9624
2266.71	4.6676
2269.14	15.1399
2271.56	9.37988
2273.99	1.9574
2276.41	13.0271
2278.83	6.83154
2281.26	-4.06372
2283.67	-3.61829
2286.1	11.9283
2288.52	-6.39722
2290.93	13.34
2293.35	13.8364
2295.77	4.93274
2298.18	13.0996
2300.6	15.9836
2303.01	7.07397
2305.43	11.2046
2307.84	16.9794
2310.25	9.17786
2312.66	23.403
2315.07	14.8625
2317.48	5.0155
2319.89	14.2301
2322.29	13.7465
2324.7	4.22461
2327.11	7.18091
2329.51	-0.655518
2331.91	6.78235
2334.32	12.7795
2336.72	1.29309
2339.12	10.3197
2341.52	0.763428
2343.92	15.2299
2346.32	7.71045
2348.72	7.7428
2351.11	4.71936
2353.51	5.6582
2355.91	13.7811
2358.3	5.92883
2360.69	1.81409
2363.09	0.661011
2365.48	-0.120605
2367.87	13.3119
2370.26	2.15649
2372.65	3.52515
2375.04	3.03943
2377.42	7.73218
2379.81	1.59009
2382.2	1.3855
2384.58	19.323
2386.97	12.6942
2389.35	15.8715
2391.73	18.1448
2394.11	16.8986
2396.5	11.9786
2398.87	13.421
2401.25	26.2217
2403.63	-0.470581
2406.01	8.92432
2408.39	15.4537
2410.76	9.38403
2413.14	14.0977
2415.51	12.8684
2417.89	7.97278
2420.26	10.0992
2422.63	8.8844
2425	-3.60754
2427.37	10.339
2429.74	6.98767
2432.11	3.93555
2434.47	-9.35852
2436.84	12.3518
2439.21	8.56445
2441.57	6.81824
2443.93	10.9323
2446.3	3.07654
2448.66	7.80884
2451.02	-5.03467
2453.38	6.75427
2455.74	5.85205
2458.1	11.8848
2460.46	-2.36536
2462.82	-4.81519
2465.17	1.50757
2467.53	0.421631
2469.88	5.25415
2472.24	1.1228
2474.59	0.66687
2476.94	-5.63013
2479.29	2.97107
2481.64	-1.17212
2483.99	-5.21765
2486.34	-5.43384
2488.69	-1.3241
2491.04	7.37048
2493.38	7.14063
2495.73	-6.63953
2498.08	10.2988
2500.42	7.07727
2502.76	4.41858
2505.11	2.97461
2507.45	7.71155
2509.79	9.94812
2512.13	10.4438
2514.47	13.9399
2516.8	12.2305
2519.14	-9.93408
2521.48	-2.44543
2523.81	-4.41162
2526.15	1.86047
2528.48	10.8418
2530.81	-9.85767
2533.15	-4.32117
2535.48	3.56506
2537.81	7.09485
2540.14	-7.43909
2542.47	2.76514
2544.8	-4.23523
2547.12	-17.196
2549.45	-4.8634
2551.77	-1.10596
2554.1	4.22534
2556.42	13.5614
2558.75	5.73621
2561.07	3.06689
2563.39	-5.30371
2565.71	10.4034
2568.03	2.15063
2570.35	3.60034
2572.67	8.88232
2574.99	-2.29553
2577.3	8.2572
2579.62	-1.43933
2581.93	19.056
2584.25	5.69983
2586.56	10.4723
2588.87	-5.25256
2591.19	-7.31458
2593.5	7.4502
2595.81	-2.44556
2598.11	-6.65503
2600.42	13.5753
2602.73	-4.00916
2605.04	3.69604
2607.34	-7.02112
2609.65	1.82642
2611.95	5.40662
2614.26	1.3479
2616.56	-1.7937
2618.86	0.774048
2621.16	2.72131
2623.46	3.35449
2625.76	-0.55896
2628.06	5.26404
2630.36	13.6349
2632.65	9.37976
2634.95	-1.47949
2637.25	15.1644
2639.54	-1.02649
2641.83	4.68433
2644.13	10.8519
2646.42	1.04333
2648.71	12.9032
2651	11.5601
2653.29	11.8433
2655.58	10.4331
2657.87	28.3281
2660.15	26.3734
2662.44	28.5601
2664.72	34.6193
2667.01	23.8654
2669.29	37.2002
2671.58	38.6642
2673.86	30.2971
2676.14	46.1725
2678.42	51.3914
2680.7	37.5487
2682.98	22.2423
2685.26	35.5376
2687.54	25.6953
2689.81	19.4386
2692.09	11.2946
2694.36	10.0292
2696.64	15.0361
2698.91	7.23743
2701.18	0.772339
2703.45	-0.603516
2705.72	-4.33398
2707.99	-0.246582
2710.26	15.457
2712.53	12.4078
2714.8	5.4364
2717.07	14.3552
2719.33	27.9377
2721.6	32.9865
2723.86	43.7322
2726.13	48.0245
2728.39	49.1667
2730.65	60.7411
2732.91	70.1184
2735.17	78.635
2737.43	96.8679
2739.69	100.272
2741.95	111.081
2744.21	108.585
2746.46	102.82
2748.72	100.751
2750.97	109.191
2753.23	92.504
2755.48	71.1603
2757.73	73.9351
2759.98	60.9149
2762.24	57.4979
2764.49	55.9094
2766.73	49.5725
2768.98	39.4121
2771.23	37.1586
2773.48	38.1726
2775.72	35.2715
2777.97	28.6495
2780.21	26.7842
2782.46	28.0623
2784.7	21.5397
2786.94	24.829
2789.18	12.7225
2791.42	11.6472
2793.66	5.5
2795.9	11.5288
2798.14	3.16699
2800.38	0.900146
2802.61	10.153
2804.85	5.901
2807.08	1.60278
2809.32	-1.4502
2811.55	-1.94446
2813.78	-1.51965
2816.02	0.656494
2818.25	-1.75586
2820.48	0.762695
2822.71	1.03235
2824.94	3.90674
2827.16	0.153687
2829.39	8.3606
2831.61	13.2906
2833.84	21.6193
2836.06	30.2968
2838.29	34.3069
2840.51	52.1775
2842.73	64.0248
2844.96	81.8256
2847.18	107.185
2849.4	131.552
2851.61	151.723
2853.83	167.103
2856.05	177.654
2858.27	180.125
2860.48	190.481
2862.7	207.363
2864.91	230.708
2867.13	264.317
2869.34	325.981
2871.55	389.8
2873.76	462.239
2875.97	529.986
2878.18	588.377
2880.39	632.063
2882.6	640.88
2884.81	628.836
2887.01	617.234
2889.22	610.316
2891.42	602.149
2893.63	612.796
2895.83	648.903
2898.03	690.334
2900.23	718.87
2902.43	748.078
2904.63	797.643
2906.83	837.485
2909.03	875.614
2911.09	927.899
2913.31	990.39
2915.54	1068.69
2917.76	1163.8
2919.99	1240.96
2922.21	1345.92
2924.43	1428.44
2926.65	1560.56
2928.87	1743.27
2931.09	1924.31
2933.31	2133.42
2935.53	2414.23
2937.75	2716.7
2939.97	3078.31
2942.18	3396.43
2944.4	3566.16
2946.61	3479.58
2948.83	3239.68
2951.04	2894.98
2953.25	2542.13
2955.47	2233.92
2957.68	1917.96
2959.89	1716.17
2962.1	1534.19
2964.31	1399.28
2966.52	1312.92
2968.73	1199.6
2970.93	1102.65
2973.14	1003.41
2975.35	934.959
2977.55	867.083
2979.76	834.025
2981.96	798.161
2984.16	795.29
2986.37	841.873
2988.57	900.298
2990.77	975.784
2992.97	1112.96
2995.17	1190.75
2997.37	1281.82
2999.57	1299.42
3001.77	1266.91
3003.96	1225.44
3006.16	1143.27
3008.36	1041.23
3010.55	957.326
3012.75	843.931
3014.94	749.872
3017.13	645.619
3019.32	532.207
3021.52	450.872
3023.71	358.622
3025.9	296.348
3028.09	232.179
3030.28	191.905
3032.46	151.214
3034.65	118.381
3036.84	107.45
3039.02	76.1379
3041.21	63.0023
3043.39	54.2794
3045.58	47.3884
3047.76	40.5291
3049.94	28.353
3052.13	33.7373
3054.31	30.2462
3056.49	29.4857
3058.67	29.931
3060.85	32.4847
3063.03	36.8176
3065.2	40.0598
3067.38	49.64
3069.56	49.6851
3071.73	62.8788
3073.91	67.099
3076.08	83.7327
3078.26	83.553
3080.43	81.9341
3082.6	81.4043
3084.77	54.0179
3086.95	49.3516
3089.12	40.9755
3091.29	30.9054
3093.46	13.4779
3095.62	10.0092
3097.79	-5.2677
3099.96	-1.95557
3102.12	-1.49414
3104.29	-9.42371
3106.45	-0.192017
3108.62	-6.2948
3110.78	0.0976563
3112.95	0.501343
3115.11	0.650635
3117.27	-2.36755
3119.43	1.36218
3121.59	1.73669
3123.75	0.506714
3125.91	3.27246
3128.07	-2.5907
3130.22	2.16724
3132.38	-3.04993
3134.54	-6.2981
3136.69	1.67578
3138.85	-0.115845
3141	6.20154
3143.16	1.2417
3145.31	3.23706
3147.46	0.315308
3149.61	0.145996
3151.76	5.86536
3153.91	9.85803
3156.06	9.07605
3158.21	0.695435
3160.36	7.28577
3162.51	4.99841
3164.65	-1.49109
3166.8	-1.04077
3168.94	5.13812
3171.09	9.60101
3173.23	5.57532
3175.38	4.23639
3177.52	5.56708
3179.66	7.31506
3181.8	5.92505
3183.94	4.39386
3186.08	14.4606
3188.22	0.882874
3190.36	13.9437
3192.5	15.0671
3194.63	8.16296
3196.77	11.8403
3198.91	22.7087
3201.04	25.7084
3203.18	21.802
3205.31	25.6496
3207.44	23.5707
3209.58	26.5795
3211.71	17.0668
3213.84	20.2005
3215.97	19.6221
3218.1	17.5261
3220.23	17.8992
3222.36	19.8521
3224.49	16.9016
3226.61	12.6639
3228.74	18.0851
3230.87	17.0439
3232.99	2.48315
3235.11	12.0817
3237.24	13.8299
3239.36	7.72333
3241.48	4.05792
3243.61	6.45709
3245.73	-3.08765
3247.85	-0.907043
3249.97	-0.553589
3252.09	-5.25549
3254.2	0.81189
3256.32	-7.62848
3258.44	2.59796
3260.56	4.10522
3262.67	-0.923584
3264.79	-7.245
3266.9	1.61786
3269.02	-0.474487
3271.13	-1.9845
3273.24	1.24469
3275.35	0.754211
3277.46	-2.76953
3279.57	-7.71039
3281.68	2.25433
3283.79	3.42389
3285.9	-3.37115
3288.01	5.68762
3290.12	-10.1921
3292.22	1.68774
3294.33	-1.8598
3296.43	5.91876
3298.54	-5.01758
3300.64	6.44922
3302.75	-11.1143
3304.85	-10.843
3306.95	-10.2766
3309.05	-6.29218
3311.15	-6.04236
3313.25	-1.55896
3315.35	-11.9786
3317.45	0.41095
3319.55	-3.81042
3321.65	-3.31573
3323.74	-3.5896
3325.84	-1.09601
3327.93	2.81433
3330.03	-5.00049
3332.12	-12.1085
3334.21	-6.21436
3336.31	-1.73163
3338.4	-5.85565
3340.49	-11.5207
3342.58	-8.20856
3344.67	-15.5707
3346.76	-10.2795
3348.85	-21.1799
3350.94	-21.7132
3353.02	-18.0981
3355.11	-5.8512
3357.2	-1.94543
3359.28	0.17749
3361.37	-6.14398
3363.45	0.914124
3365.53	1.09167
3367.62	-0.222168
3369.7	-2.4693
3371.78	-2.69537
3373.86	-0.570862
3375.94	-4.62335
3378.02	-2.85583
3380.1	-3.78381
3382.18	6.07562
3384.25	1.05579
3386.33	-4.30212
3388.41	2.55109
3390.48	-10.4718
3392.56	0.449585
3394.63	6.51831
3396.71	-5.51465
3398.78	0.374512
3400.85	-0.38031
3402.92	-0.415039
3404.99	1.25238
3407.06	0.63562
3409.13	-10.2087
3411.2	-5.3233
3413.27	5.41046
3415.34	-0.492981
3417.4	2.04358
3419.47	-6.89746
3421.54	9.34375
3423.6	1.18475
3425.67	-4.16791
3427.73	-6.16431
3429.79	3.01074
3431.86	4.77527
3433.92	-4.57379
3435.98	-4.27533
3438.04	-3.31458
3440.1	1.86292
3442.16	4.69006
3444.22	-6.1297
3446.27	1.71631
3448.33	-2.38794
3450.39	4.59363
3452.44	-4.6474
3454.5	-4.38092
3456.55	-1.20209
3458.61	-3.18738
3460.66	3.09875
3462.71	1.0412
3464.77	-2.00775
3466.82	3.61072
3468.87	-2.74811
3470.92	-2.23267
3472.97	-6.72925
3475.02	3.96307
3477.06	0.812012
3479.11	-6.271
3481.16	1.25134
3483.2	-12.0261
3485.25	3.44061
3487.3	3.36707
3489.34	-3.62347
3491.38	1.36554
3493.43	-5.4054
3495.47	-0.381287
3497.51	-4.31757
3499.55	2.65411
