200.057	-8.29221
203.219	42.048
206.378	81.7401
209.539	128.289
212.696	167.206
215.854	212.715
219.009	250.117
222.165	276.461
225.318	317.349
228.472	336.221
231.622	347.887
234.774	375.967
237.923	378.737
241.07	382.168
244.217	391.839
247.364	393.383
250.508	395.411
253.652	403.518
256.794	414.02
259.937	425.612
263.077	431.581
266.216	441.271
269.354	463.876
272.491	477.381
275.626	498.039
278.761	512.471
281.895	554.894
285.027	538.119
288.159	547.881
291.287	562.87
294.417	567.722
297.545	572.018
300.672	565.252
303.799	551.408
306.922	527.758
310.046	504.338
313.169	486.475
316.289	477.887
319.41	443.117
322.528	437.241
325.647	430.692
328.764	419.37
331.879	440.666
334.993	445.821
338.107	435.615
341.219	438.359
344.332	441.559
347.441	452.459
350.549	460.887
353.659	439.714
356.765	410.301
359.87	388.175
362.975	375.018
366.078	355.462
369.18	333.64
372.281	317.941
375.383	309.758
378.482	299.667
381.58	295.281
384.675	295.152
387.771	292.799
390.865	307.043
393.959	325.039
397.052	321.793
400.144	303.993
403.234	321.379
406.322	292.094
409.411	265.663
412.498	243.229
415.583	207.693
418.668	207.386
421.75	188.867
424.834	166.705
427.916	129.121
430.996	107.294
434.074	92.4642
437.153	53.286
440.229	35.3124
443.306	16.5449
446.381	2.30717
449.454	4.54002
452.526	24.0239
455.599	35.4475
458.669	29.6787
461.738	38.8144
464.806	45.0396
467.873	-0.922263
470.939	-3.19518
474.004	22.1797
477.067	18.6461
480.13	28.8055
483.192	53.3305
486.253	60.8542
489.313	65.5073
492.369	95.9482
495.427	78.021
498.484	94.3642
501.54	83.9579
504.592	100.817
507.646	86.7198
510.698	111.571
513.748	70.4016
516.799	64.3653
519.846	33.9711
522.895	26.3941
525.94	28.4387
528.985	27.958
532.03	5.71257
535.073	-12.2546
538.114	16.3632
541.157	10.3609
544.196	21.2504
547.234	19.5831
550.272	11.2692
553.308	52.3874
556.344	49.6605
559.378	57.6075
562.411	80.1763
565.444	92.3785
568.475	87.9513
571.505	75.8647
574.535	82.1749
577.563	89.3874
580.588	70.7665
583.615	82.9275
586.64	56.4056
589.662	42.8395
592.686	13.0818
595.708	-18.3698
598.727	0.854851
601.747	-30.4532
604.765	-54.726
607.783	-64.2458
610.798	-62.0556
613.813	-73.4697
616.828	-67.5324
619.84	-71.6679
622.851	-59.8769
625.862	-86.6548
628.873	-50.3749
631.881	-55.5464
634.889	-35.6037
637.895	-28.7437
640.9	-5.04458
643.904	11.1117
646.908	17.1752
649.91	23.192
652.909	56.9772
655.91	81.0079
658.909	59.5566
661.907	79.7907
664.903	48.64
667.899	75.3271
670.895	63.5177
673.887	64.9937
676.88	32.7759
679.871	-11.4616
682.862	4.23894
685.851	-19.5766
688.84	-24.6457
691.827	-22.6712
694.812	-56.2939
697.799	-78.4147
700.782	-43.4838
703.765	-54.8243
706.746	-63.4454
709.727	-53.0809
712.706	-24.696
715.685	-24.181
718.663	-37.2719
721.639	7.30312
724.615	5.50119
727.59	27.9375
730.563	68.7858
733.536	75.5316
736.506	83.3603
739.477	95.6472
742.446	89.3614
745.413	114.658
748.381	118.122
751.346	114.755
754.312	113.366
757.275	114.755
760.239	90.3038
763.2	121.413
766.16	92.436
769.121	80.1685
772.079	48.3793
775.036	34.4268
777.992	41.5867
780.947	27.9799
783.901	5.28443
786.855	14.8329
789.807	0.710882
792.758	-12.2643
795.709	23.9539
798.658	-1.57423
801.606	7.94758
804.554	50.9581
807.498	33.6128
810.444	52.8497
813.388	71.326
816.33	68.6565
819.273	104.102
822.212	121.646
825.153	116.74
828.091	142.582
831.027	147.019
833.965	163.784
836.9	143.996
839.834	174.271
842.769	161.191
845.701	176.814
848.632	179.109
851.562	177.275
854.491	198.216
857.419	254.679
860.347	227.776
863.273	306.014
866.196	348.499
869.121	400.307
872.044	369.886
874.966	328.502
877.886	241.356
880.807	182.322
883.726	110.139
886.643	93.7868
889.561	68.7173
892.475	53.7715
895.389	87.1076
898.304	63.8603
901.216	98.48
904.127	96.9715
907.037	113.079
909.948	162.513
912.856	169.142
915.764	179.704
918.67	157.041
921.575	193.993
924.479	194.308
927.381	208.955
930.284	200.8
933.185	192.55
936.086	180.875
938.983	180.555
941.882	167.804
944.78	154.135
947.675	156.442
950.571	159.231
953.464	120.001
956.358	128.515
959.249	118.298
962.139	83.7141
965.028	61.9302
967.919	48.0075
970.806	34.9232
973.693	41.7423
976.578	24.7111
979.463	31.3421
982.346	18.9522
985.229	15.6551
988.111	22.5136
990.992	37.2598
993.87	51.5499
996.749	81.4174
999.627	57.5723
1002.5	102.463
1005.38	57.2202
1008.25	64.6711
1011.13	87.4136
1014	133.333
1016.87	125.486
1019.74	140.875
1022.61	142.731
1025.48	192.416
1028.35	159.88
1031.21	203.423
1034.08	195.596
1036.94	238.345
1039.8	260.097
1042.67	253.679
1045.53	212.863
1048.39	206.514
1051.25	153.847
1054.1	171.518
1056.96	106.078
1059.82	128.622
1062.67	90.7084
1065.53	80.2783
1068.38	88.9349
1071.23	42.2676
1074.08	57.5705
1076.93	27.3462
1079.78	42.75
1082.63	58.1472
1085.48	52.8676
1088.32	89.164
1091.17	64.4584
1094.01	80.0817
1096.85	117.274
1099.7	66.676
1102.54	65.5805
1105.38	71.8859
1108.21	55.0838
1111.05	37.0845
1113.89	64.5944
1116.72	111.736
1119.56	192.551
1122.39	224.461
1125.23	224.943
1128.06	225.736
1130.89	231.557
1133.72	217.949
1136.55	217.066
1139.37	178.085
1142.2	151.857
1145.03	143.673
1147.85	120.015
1150.67	108.527
1153.5	99.5435
1156.32	99.8202
1159.14	62.8276
1161.96	91.2415
1164.78	94.749
1167.6	61.3347
1170.41	67.1132
1173.23	34.9435
1176.04	17.0729
1178.86	32.2267
1181.67	6.95831
1184.48	12.9311
1187.29	-15.6861
1190.1	-4.11048
1192.91	5.38367
1195.72	6.6213
1198.52	-8.7336
1201.33	32.1445
1204.13	25.8944
1206.94	41.3152
1209.74	44.8617
1212.54	37.9886
1215.34	58.1938
1218.14	114.14
1220.94	88.0023
1223.74	116.73
1226.54	96.1834
1229.33	132.836
1232.13	152.758
1234.92	107.411
1237.71	119.313
1240.5	129.367
1243.3	137.387
1246.09	111.316
1248.87	150.004
1251.66	116.525
1254.45	104.297
1257.23	135.047
1260.02	103.802
1262.8	88.7079
1265.59	72.7324
1268.37	83.4861
1271.15	91.311
1273.93	98.0955
1276.71	104.507
1279.48	131.76
1282.26	95.7397
1285.04	140.291
1287.81	152.439
1290.58	182.389
1293.36	239.039
1296.13	244.627
1298.9	237.855
1301.67	244.913
1304.44	190.916
1307.21	187.621
1309.98	183.631
1312.74	130.939
1315.51	162.874
1318.27	153.153
1321.03	161.809
1323.8	196.846
1326.56	136.811
1329.32	126.996
1332.08	147.045
1334.83	145.119
1337.59	136.936
1340.35	156.456
1343.1	146.522
1345.86	131.671
1348.61	138.011
1351.36	162.664
1354.11	168.142
1356.86	161.712
1359.61	160.705
1362.36	131.592
1365.11	76.2755
1367.86	119.488
1370.6	114.426
1373.35	91.7113
1376.09	99.5023
1378.83	68.737
1381.57	96.3018
1384.31	132.556
1387.05	96.5539
1389.79	60.8254
1392.53	83.0325
1395.27	58.0031
1398	8.75205
1400.74	57.9741
1403.47	30.9618
1406.2	1.73698
1408.94	65.55
1411.67	36.734
1414.4	57.229
1417.12	92.0281
1419.85	105.863
1422.58	106.71
1425.31	141.318
1428.03	143.231
1430.75	161.656
1433.48	126.779
1436.2	148.71
1438.92	158.455
1441.64	221.286
1444.36	260.175
1447.08	282.581
1449.79	315.709
1452.51	278.334
1455.23	307.388
1457.94	255.406
1460.66	211.208
1463.37	198.793
1466.08	164.456
1468.79	141.682
1471.5	108.445
1474.21	66.2761
1476.92	64.6114
1479.62	66.3083
1482.33	84.1657
1485.03	79.1814
1487.74	66.392
1490.44	63.501
1493.14	97.0958
1495.84	51.7258
1498.54	38.8183
1501.24	50.0182
1503.94	54.0156
1506.63	83.6209
1509.33	-0.56846
1512.03	31.6652
1514.72	23.6667
1517.41	0.373222
1520.11	39.6377
1522.8	33.091
1525.49	64.2438
1528.18	118.185
1530.87	117.461
1533.55	125.503
1536.24	130.002
1538.93	108.12
1541.61	116.545
1544.29	105.552
1546.98	124.368
1549.66	100.712
1552.34	100.636
1555.02	102.762
1557.7	131.567
1560.38	133.559
1563.05	144.825
1565.73	125.196
1568.4	137.538
1571.08	118.903
1573.75	126.947
1576.42	103.855
1579.09	86.5949
1581.77	158.075
1584.43	144.956
1587.1	129.907
1589.77	167.416
1592.44	155.935
1595.1	168.534
1597.77	136.986
1600.43	135.892
1603.09	86.9918
1605.76	118.92
1608.42	101.565
1611.08	86.6699
1613.74	68.3948
1616.39	58.4023
1619.05	67.135
1621.71	53.5339
1624.36	23.2776
1627.02	29.4689
1629.67	17.8356
1632.32	19.8807
1634.97	-7.91196
1637.62	16.3534
1640.27	36.5541
1642.92	48.0616
1645.57	57.9164
1648.22	44.1585
1650.86	94.7476
1653.51	65.933
1656.15	71.3116
1658.79	72.9522
1661.44	30.859
1664.08	93.5199
1666.72	84.5493
1669.36	74.2944
1671.99	72.942
1674.63	115.237
1677.27	109.048
1679.9	83.7618
1682.54	44.2452
1685.17	72.0188
1687.81	50.1612
1690.44	89.2459
1693.07	21.9052
1695.7	26.2891
1698.33	31.018
1700.96	6.50743
1703.58	34.5243
1706.21	3.73212
1708.83	7.84344
1711.46	14.9434
1714.08	2.53162
1716.7	-6.72863
1719.32	-3.35612
1721.94	1.03028
1724.56	7.97802
1727.18	34.6485
1729.8	12.5449
1732.42	17.0072
1735.03	18.8817
1737.65	26.1287
1740.26	103.423
1742.88	127.476
1745.49	125.698
1748.1	180.671
1750.71	192.831
1753.32	278.469
1755.93	266.53
1758.53	252.137
1761.14	289.825
1763.75	275.053
1766.35	325.785
1768.96	372.515
1771.56	377.567
1774.16	426.114
1776.76	380.228
1779.36	378.247
1781.96	368.182
1784.56	308.938
1787.16	333.754
1789.75	295.843
1792.35	295.157
1794.94	296.586
1797.54	311.926
1800.13	330.07
1802.72	340.528
1805.31	386.77
1807.9	317.275
1810.49	313.267
1813.08	327.477
1815.67	274.707
1818.25	282.477
1820.84	339.245
1823.42	285.021
1826.01	307.76
1828.59	307.403
1831.17	345.541
1833.75	288.404
1836.33	272.615
1838.91	310.499
1841.49	287.078
1844.07	258.756
1846.64	305.85
1849.22	317.164
1851.79	386.84
1854.36	382.474
1856.94	291.148
1859.51	187.096
1862.08	80.0847
1864.65	71.336
1867.22	23.9994
1869.79	-9.26022
1872.35	-2.70943
1874.92	54.0315
1877.49	86.7361
1880.05	190.908
1882.61	266.81
1885.18	329.141
1887.74	398.339
1890.3	440.491
1892.86	414.639
1895.42	410.679
1897.97	408.774
1900.53	381.049
1903.09	451.227
1905.64	449.388
1908.2	355.186
1910.75	356.072
1913.3	362.972
1915.86	403.781
1918.41	302.342
1920.96	333.272
1923.5	301.661
1926.05	301.087
1928.6	296.991
1931.15	301.585
1933.69	260.002
1936.24	266.217
1938.78	229.429
1941.32	230.937
1943.86	206.79
1946.4	194.941
1948.94	206.714
1951.48	206.563
1954.02	152.649
1956.56	183.953
1959.09	124.387
1961.63	67.9112
1964.16	112.519
1966.7	33.1372
1969.23	15.9236
1971.76	62.0993
1974.29	-4.25715
1976.82	33.5603
1979.35	87.3201
1981.88	43.4664
1984.41	54.9351
1986.93	23.4911
1989.46	90.7368
1991.98	89.7758
1994.51	110.466
1997.03	105.913
1999.55	151.808
2002.07	131.199
2004.59	133.497
2007.11	122.896
2009.63	149.556
2012.15	135.207
2014.66	155.064
2017.18	158.417
2019.69	177.974
2022.21	227.041
2024.72	197.404
2027.23	250.319
2029.75	236.367
2032.26	238.743
2034.77	192.813
2037.27	216.644
2039.78	225.75
2042.29	226.873
2044.79	198.336
2047.3	205.836
2049.8	208.844
2052.31	249.242
2054.81	233.103
2057.31	182.658
2059.81	183.14
2062.31	155.953
2064.81	116.139
2067.31	144.081
2069.8	107.717
2072.3	73.6177
2074.79	97.9337
2077.29	67.6275
2079.78	55.3691
2082.27	60.4527
2084.77	71.1538
2087.26	-19.0946
2089.75	14.5215
2092.24	23.9221
2094.72	24.2306
2097.21	53.6132
2099.7	11.7343
2102.18	36.5668
2104.67	17.2482
2107.15	19.233
2109.63	18.1267
2112.11	19.719
2114.6	29.2735
2117.08	32.4165
2119.56	59.9464
2122.03	8.09158
2124.51	5.88469
2126.99	50.5289
2129.46	79.5299
2131.94	90.1566
2134.41	123.563
2136.89	85.3442
2139.36	142.668
2141.83	105.684
2144.3	107.614
2146.77	135.028
2149.24	167.648
2151.71	179.714
2154.17	213.59
2156.64	215.107
2159.1	157.565
2161.57	185.332
2164.03	207.689
2166.49	227.718
2168.96	249.114
2171.42	216.31
2173.88	264.728
2176.34	259.585
2178.79	264.332
2181.25	235.108
2183.71	237.866
2186.16	226.5
2188.62	212.771
2191.07	186.704
2193.53	249.348
2195.98	212.126
2198.43	164.37
2200.88	191.388
2203.33	146.627
2205.78	155.288
2208.23	138.749
2210.67	120.123
2213.12	167.714
2215.56	89.9288
2218.01	127.833
2220.45	95.6771
2222.89	105.887
2225.33	93.3501
2227.78	71.79
2230.22	127.929
2232.66	78.0285
2235.09	99.121
2237.53	60.0642
2239.97	28.9691
2242.4	53.5867
2244.84	-3.25447
2247.27	24.789
2249.7	-1.55034
2252.14	52.3457
2254.57	4.4353
2257	47.5228
2259.43	27.3259
2261.86	5.31795
2264.28	-0.0704689
2266.71	53.1894
2269.14	7.62138
2271.56	49.8251
2273.99	83.3545
2276.41	26.349
2278.83	58.6538
2281.26	46.0696
2283.67	32.7234
2286.1	8.77937
2288.52	25.0286
2290.93	56.7376
2293.35	26.4839
2295.77	28.9631
2298.18	53.7198
2300.6	32.8606
2303.01	49.318
2305.43	49.6163
2307.84	60.6537
2310.25	41.8626
2312.66	2.89165
2315.07	-9.08265
2317.48	-7.02661
2319.89	18.6444
2322.29	52.4449
2324.7	8.38986
2327.11	8.09448
2329.51	-11.1198
2331.91	41.7626
2334.32	6.709
2336.72	17.8053
2339.12	45.387
2341.52	9.50324
2343.92	-1.11224
2346.32	-31.1039
2348.72	22.6001
2351.11	11.2889
2353.51	-12.7704
2355.91	-3.35909
2358.3	-10.3895
2360.69	6.89205
2363.09	12.3936
2365.48	13.3508
2367.87	19.6705
2370.26	25.7038
2372.65	36.5668
2375.04	48.502
2377.42	25.4605
2379.81	39.48
2382.2	28.5312
2384.58	54.687
2386.97	58.3132
2389.35	38.6654
2391.73	38.1703
2394.11	26.1525
2396.5	39.4851
2398.87	71.7983
2401.25	91.3021
2403.63	74.7336
2406.01	49.2677
2408.39	91.2846
2410.76	62.7075
2413.14	76.5833
2415.51	57.5243
2417.89	58.3357
2420.26	21.9269
2422.63	28.5338
2425	45.3535
2427.37	43.1628
2429.74	36.0419
2432.11	25.9021
2434.47	88.4894
2436.84	36.7837
2439.21	43.3691
2441.57	37.3616
2443.93	54.0486
2446.3	12.1485
2448.66	36.0388
2451.02	61.5465
2453.38	45.1218
2455.74	37.079
2458.1	65.4454
2460.46	79.0126
2462.82	61.293
2465.17	8.79335
2467.53	-0.338928
2469.88	25.9747
2472.24	-4.17077
2474.59	5.801
2476.94	55.9062
2479.29	-10.3836
2481.64	50.4955
2483.99	58.2038
2486.34	85.1641
2488.69	36.9643
2491.04	32.3126
2493.38	-4.59409
2495.73	6.27141
2498.08	2.71676
2500.42	45.9799
2502.76	38.2892
2505.11	53.5479
2507.45	52.9299
2509.79	99.1337
2512.13	90.1959
2514.47	30.677
2516.8	58.3724
2519.14	21.189
2521.48	48.4204
2523.81	29.4295
2526.15	24.9464
2528.48	67.5335
2530.81	27.9493
2533.15	27.9049
2535.48	52.0092
2537.81	14.8626
2540.14	-6.25023
2542.47	-12.6844
2544.8	16.6105
2547.12	30.362
2549.45	-16.0884
2551.77	-7.9142
2554.1	59.9611
2556.42	-4.05322
2558.75	103.898
2561.07	54.2808
2563.39	4.19721
2565.71	45.1878
2568.03	22.3297
2570.35	11.1957
2572.67	-16.585
2574.99	-3.37967
2577.3	-21.5782
2579.62	-3.27291
2581.93	21.0089
2584.25	10.4169
2586.56	19.371
2588.87	8.13286
2591.19	73.6843
2593.5	85.8376
2595.81	51.042
2598.11	67.9317
2600.42	41.2659
2602.73	16.44
2605.04	55.3666
2607.34	32.4283
2609.65	37.2613
2611.95	57.9854
2614.26	19.6943
2616.56	76.5306
2618.86	63.3184
2621.16	53.1287
2623.46	68.4307
2625.76	33.4037
2628.06	40.8186
2630.36	52.9097
2632.65	62.3064
2634.95	46.2084
2637.25	57.8554
2639.54	13.0336
2641.83	36.4078
2644.13	13.9602
2646.42	-12.57
2648.71	6.77539
2651	29.5349
2653.29	46.5734
2655.58	66.3356
2657.87	108.352
2660.15	103.16
2662.44	134.79
2664.72	165.342
2667.01	192.003
2669.29	168.944
2671.58	170.318
2673.86	177.819
2676.14	199.859
2678.42	210.607
2680.7	111.759
2682.98	100.158
2685.26	121.095
2687.54	105.524
2689.81	60.7128
2692.09	48.3048
2694.36	77.8313
2696.64	62.255
2698.91	60.5832
2701.18	72.0394
2703.45	87.5799
2705.72	89.115
2707.99	89.8443
2710.26	70.0075
2712.53	70.1809
2714.8	42.7223
2717.07	50.4455
2719.33	36.3667
2721.6	30.5385
2723.86	63.8062
2726.13	76.5275
2728.39	57.6227
2730.65	98.3956
2732.91	78.1553
2735.17	82.7654
2737.43	74.0123
2739.69	137.554
2741.95	117.308
2744.21	94.897
2746.46	92.2558
2748.72	108.96
2750.97	98.4266
2753.23	104.682
2755.48	121.852
2757.73	108.593
2759.98	103.349
2762.24	130.278
2764.49	80.4357
2766.73	103.624
2768.98	72.9054
2771.23	86.5644
2773.48	82.7069
2775.72	103.218
2777.97	98.0264
2780.21	86.2226
2782.46	69.6106
2784.7	106.335
2786.94	65.4358
2789.18	79.9079
2791.42	91.8231
2793.66	62.3793
2795.9	61.526
2798.14	71.1863
2800.38	75.7943
2802.61	70.8442
2804.85	50.8347
2807.08	44.8733
2809.32	68.9928
2811.55	37.0274
2813.78	36.9032
2816.02	21.9566
2818.25	2.63324
2820.48	13.6023
2822.71	39.2822
2824.94	31.3217
2827.16	40.0074
2829.39	6.14809
2831.61	11.8214
2833.84	10.6165
2836.06	-1.31389
2838.29	-16.4079
2840.51	-2.19138
2842.73	7.41109
2844.96	18.4033
2847.18	22.4632
2849.4	26.0543
2851.61	10.2695
2853.83	24.3633
2856.05	9.43173
2858.27	12.0524
2860.48	-3.77445
2862.7	3.75887
2864.91	13.6428
2867.13	2.23059
2869.34	25.5719
2871.55	39.1151
2873.76	76.9947
2875.97	82.7206
2878.18	97.7818
2880.39	104.927
2882.6	99.7322
2884.81	75.0678
2887.01	100.682
2889.22	81.702
2891.42	59.9753
2893.63	30.15
2895.83	20.2164
2898.03	34.8755
2900.23	7.55696
2902.43	1.08504
2904.63	-0.584419
2906.83	-10.0472
2909.03	-10.6636
2911.09	22.4605
2913.31	18.5589
2915.54	141.958
2917.76	77.432
2919.99	131.971
2922.21	134.799
2924.43	86.7729
2926.65	178.08
2928.87	211.799
2931.09	268.738
2933.31	392.456
2935.53	490.366
2937.75	686.265
2939.97	862.946
2942.18	1115.47
2944.4	1251.58
2946.61	1243.08
2948.83	1200.37
2951.04	1053.96
2953.25	923.336
2955.47	791.314
2957.68	657.288
2959.89	549.728
2962.1	454.644
2964.31	412.138
2966.52	379.927
2968.73	288.79
2970.93	296.65
2973.14	256.84
2975.35	242.96
2977.55	204.096
2979.76	229.075
2981.96	192.541
2984.16	217.675
2986.37	252.938
2988.57	271.737
2990.77	333.37
2992.97	389.877
2995.17	476.547
2997.37	509.676
2999.57	525.726
3001.77	510.829
3003.96	537.379
3006.16	507.068
3008.36	477.1
3010.55	414.949
3012.75	422.621
3014.94	326.193
3017.13	319.861
3019.32	271.776
3021.52	231.051
3023.71	234.727
3025.9	177.639
3028.09	157.521
3030.28	79.6315
3032.46	132.364
3034.65	55.5969
3036.84	40.7595
3039.02	50.4639
3041.21	5.71068
3043.39	39.8904
3045.58	35.7034
3047.76	9.80969
3049.94	13.472
3052.13	15.9092
3054.31	0.445823
3056.49	10.1358
3058.67	10.4462
3060.85	-31.7773
3063.03	44.1012
3065.2	-14.2688
3067.38	38.8569
3069.56	54.3422
3071.73	17.5924
3073.91	9.94635
3076.08	14.8189
3078.26	20.6331
3080.43	25.5141
3082.6	8.5679
3084.77	-11.886
3086.95	-15.7801
3089.12	36.6434
3091.29	40.4911
3093.46	41.1073
3095.62	8.33458
3097.79	-10.4476
3099.96	-3.37957
3102.12	4.5287
3104.29	-3.19399
3106.45	-32.2257
3108.62	13.8272
3110.78	-36.0893
3112.95	-16.588
3115.11	20.8841
3117.27	12.3587
3119.43	-32.146
3121.59	8.19926
3123.75	18.616
3125.91	-7.21446
3128.07	9.01781
3130.22	-34.6312
3132.38	8.25731
3134.54	-9.52569
3136.69	-13.7481
3138.85	-18.2592
3141	3.4053
3143.16	-0.634205
3145.31	-1.50181
3147.46	-16.123
3149.61	-39.2909
3151.76	9.25885
3153.91	42.4747
3156.06	38.3857
3158.21	41.5404
3160.36	45.4992
3162.51	2.40515
3164.65	36.3409
3166.8	-45.024
3168.94	-2.78205
3171.09	-10.2848
3173.23	-8.77081
3175.38	12.5392
3177.52	9.64375
3179.66	15.6228
3181.8	-10.8009
3183.94	9.75982
3186.08	10.5588
3188.22	-15.1304
3190.36	-17.1485
3192.5	-2.45345
3194.63	-5.343
3196.77	-31.9158
3198.91	-21.6836
3201.04	-40.3863
3203.18	-25.5888
3205.31	-42.8122
3207.44	-20.9703
3209.58	-0.568726
3211.71	-33.7787
3213.84	-13.6346
3215.97	-7.72169
3218.1	-20.4329
3220.23	-16.9909
3222.36	6.3137
3224.49	-7.41268
3226.61	-50.4017
3228.74	0.796175
3230.87	0.985273
3232.99	3.52115
3235.11	2.6641
3237.24	-20.4592
3239.36	-28.3999
3241.48	1.47864
3243.61	-26.3464
3245.73	-0.42975
3247.85	-15.3261
3249.97	-20.4038
3252.09	-20.9469
3254.2	0.0463829
3256.32	28.7665
3258.44	-8.29145
3260.56	32.4586
3262.67	14.2919
3264.79	-16.6817
3266.9	-33.5976
3269.02	-17.9529
3271.13	-3.30039
3273.24	1.82996
3275.35	-27.1551
3277.46	-0.528353
3279.57	22.6352
3281.68	-8.73999
3283.79	-13.356
3285.9	-4.15568
3288.01	-4.25823
3290.12	-27.4447
3292.22	-11.2008
3294.33	-2.23047
3296.43	-21.7692
3298.54	-21.8858
3300.64	-2.3715
3302.75	-12.6252
3304.85	20.0964
3306.95	-1.26869
3309.05	-10.0103
3311.15	1.68712
3313.25	5.75529
3315.35	19.9691
3317.45	21.5463
3319.55	39.279
3321.65	31.8239
3323.74	47.7863
3325.84	14.934
3327.93	17.1779
3330.03	47.7543
3332.12	28.1352
3334.21	36.8396
3336.31	31.7581
3338.4	4.62244
3340.49	41.693
3342.58	3.28224
3344.67	-3.56828
3346.76	-19.8562
3348.85	-60.1009
3350.94	-21.7795
3353.02	16.295
3355.11	28.7426
3357.2	24.6793
3359.28	28.9109
3361.37	43.8308
3363.45	42.0069
3365.53	58.4219
3367.62	71.098
3369.7	40.5657
3371.78	45.8833
3373.86	71.6824
3375.94	32.8581
3378.02	-6.41951
3380.1	29.3238
3382.18	23.3718
3384.25	19.8716
3386.33	41.0743
3388.41	11.8892
3390.48	21.7999
3392.56	14.401
3394.63	17.094
3396.71	-10.7459
3398.78	27.2235
3400.85	21.9755
3402.92	20.298
3404.99	22.8293
3407.06	24.28
3409.13	5.63551
3411.2	0.0603638
3413.27	-0.878859
3415.34	45.8183
3417.4	22.7097
3419.47	17.7216
3421.54	35.6306
3423.6	50.4618
3425.67	53.3294
3427.73	50.6786
3429.79	45.9002
3431.86	-0.692465
3433.92	53.842
3435.98	33.8233
3438.04	35.789
3440.1	-11.1339
3442.16	25.1198
3444.22	0.349972
3446.27	34.0743
3448.33	49.2038
3450.39	0.986082
3452.44	53.3272
3454.5	43.5363
3456.55	9.77185
3458.61	8.85883
3460.66	38.1022
3462.71	24.1173
3464.77	-3.92342
3466.82	3.98194
3468.87	55.7551
3470.92	9.6714
3472.97	-11.3493
3475.02	29.8843
3477.06	-7.79381
3479.11	-2.01343
3481.16	32.5057
3483.2	-1.43684
3485.25	28.3645
3487.3	30.2476
3489.34	40.3691
3491.38	4.58286
3493.43	41.4121
3495.47	35.8049
3497.51	43.735
3499.55	21.0556
