200.057	365.214
203.219	376.229
206.378	382.853
209.539	379.541
212.696	374.168
215.854	380.041
219.009	378.348
222.165	383.017
225.318	383.029
228.472	388.334
231.622	391.095
234.774	390.875
237.923	389.417
241.07	387.066
244.217	392.019
247.364	391.417
250.508	382.845
253.652	380.688
256.794	369.156
259.937	371.075
263.077	364.676
266.216	367.115
269.354	373.137
272.491	365.395
275.626	373.119
278.761	385.324
281.895	402.863
285.027	404.983
288.159	422.433
291.287	425.403
294.417	435.986
297.545	436.495
300.672	437.831
303.799	441.687
306.922	436.376
310.046	429.846
313.169	436.634
316.289	430.765
319.41	427.314
322.528	421.581
325.647	414.304
328.764	413.831
331.879	406.049
334.993	404.082
338.107	406.198
341.219	400.969
344.332	404.138
347.441	400.953
350.549	407.424
353.659	405.042
356.765	406.562
359.87	408.449
362.975	409.972
366.078	406.45
369.18	417.045
372.281	428.301
375.383	440.811
378.482	450.76
381.58	467.352
384.675	490.6
387.771	492.506
390.865	507.583
393.959	521.693
397.052	515.46
400.144	516.958
403.234	505.086
406.322	496.906
409.411	490.847
412.498	489.162
415.583	470.147
418.668	456.146
421.75	437.422
424.834	431.029
427.916	419.556
430.996	415.439
434.074	410.164
437.153	410.56
440.229	409.066
443.306	404.459
446.381	398.148
449.454	392.343
452.526	392.208
455.599	392.716
458.669	388.177
461.738	390.552
464.806	392.601
467.873	392.41
470.939	395.847
474.004	394.4
477.067	391.749
480.13	392.265
483.192	403.39
486.253	396.543
489.313	405.358
492.369	401.394
495.427	407.187
498.484	409.306
501.54	408.161
504.592	405.336
507.646	413.634
510.698	403.831
513.748	401.144
516.799	412.112
519.846	411.877
522.895	405.694
525.94	403.835
528.985	409.628
532.03	407.665
535.073	403.788
538.114	413.355
541.157	408.376
544.196	408.059
547.234	406.841
550.272	415.663
553.308	412.894
556.344	421.181
559.378	418.455
562.411	420.351
565.444	420.209
568.475	418.944
571.505	420.95
574.535	422.011
577.563	426.501
580.588	427.893
583.615	432.241
586.64	430.051
589.662	426.884
592.686	427.257
595.708	423.678
598.727	430.814
601.747	427.28
604.765	427.396
607.783	427.298
610.798	429.224
613.813	428.441
616.828	421.597
619.84	429.686
622.851	422.658
625.862	435.646
628.873	439.848
631.881	443.268
634.889	444.125
637.895	442.789
640.9	443.152
643.904	453.146
646.908	452.731
649.91	456.507
652.909	451.689
655.91	457.12
658.909	455.193
661.907	455.046
664.903	459.769
667.899	461.127
670.895	462.815
673.887	460.401
676.88	451.501
679.871	457.93
682.862	463.378
685.851	467.029
688.84	459.013
691.827	461.965
694.812	461.462
697.799	466.994
700.782	462.19
703.765	460.27
706.746	456.645
709.727	457.476
712.706	457.666
715.685	447.053
718.663	440.261
721.639	448.282
724.615	454.732
727.59	454.146
730.563	472.732
733.536	488.704
736.506	489.46
739.477	498.152
742.446	486.358
745.413	487.829
748.381	477.584
751.346	476.656
754.312	474.569
757.275	468.938
760.239	463.169
763.2	458.224
766.16	463.579
769.121	454.756
772.079	454.268
775.036	446.659
777.992	445.476
780.947	445.081
783.901	433.823
786.855	446.936
789.807	435.513
792.758	437.832
795.709	439.16
798.658	434.857
801.606	435.857
804.554	445.625
807.498	444.624
810.444	451.577
813.388	451.412
816.33	445.681
819.273	448.4
822.212	451.07
825.153	453.215
828.091	454.373
831.027	455.565
833.965	465.668
836.9	472.331
839.834	483.582
842.769	490.976
845.701	509.646
848.632	525.009
851.562	551.945
854.491	585.984
857.419	644.605
860.347	718.019
863.273	810.696
866.196	884.95
869.121	918.195
872.044	905.858
874.966	829.662
877.886	730.015
880.807	643.301
883.726	591.306
886.643	556.863
889.561	540.279
892.475	528.254
895.389	523.663
898.304	514.331
901.216	513.448
904.127	520.448
907.037	512.676
909.948	510.566
912.856	508.605
915.764	503.053
918.67	507.754
921.575	500.567
924.479	501.147
927.381	496.623
930.284	493.472
933.185	484.515
936.086	490.478
938.983	482.043
941.882	486.739
944.78	480.141
947.675	485.446
950.571	477.758
953.464	480.837
956.358	472.692
959.249	473.32
962.139	468.814
965.028	466.93
967.919	461.775
970.806	463.057
973.693	468.228
976.578	462.653
979.463	467.585
982.346	460.848
985.229	466.681
988.111	461.1
990.992	464.634
993.87	467.951
996.749	461.645
999.627	466.533
1002.5	469.804
1005.38	470.835
1008.25	476.587
1011.13	488.076
1014	497.051
1016.87	503.289
1019.74	507.943
1022.61	529.328
1025.48	542.999
1028.35	555.486
1031.21	572.067
1034.08	587.107
1036.94	617.56
1039.8	625.741
1042.67	628.566
1045.53	618.054
1048.39	593.403
1051.25	582.007
1054.1	560.479
1056.96	544.91
1059.82	531.966
1062.67	516.745
1065.53	518.377
1068.38	509.969
1071.23	515.024
1074.08	521.787
1076.93	536.53
1079.78	544.094
1082.63	556.897
1085.48	576.219
1088.32	594.548
1091.17	589.612
1094.01	599.587
1096.85	601.76
1099.7	582.002
1102.54	578.036
1105.38	578.163
1108.21	569.909
1111.05	567.799
1113.89	594.552
1116.72	622.308
1119.56	644.815
1122.39	663.978
1125.23	677.79
1128.06	660.111
1130.89	652.936
1133.72	626.913
1136.55	600.402
1139.37	572.148
1142.2	549.271
1145.03	534.158
1147.85	515.847
1150.67	511.374
1153.5	504.603
1156.32	501.201
1159.14	506.162
1161.96	503.407
1164.78	502.143
1167.6	502.307
1170.41	514.027
1173.23	520.542
1176.04	534.054
1178.86	535.982
1181.67	539.326
1184.48	535.936
1187.29	529.284
1190.1	534.2
1192.91	525.696
1195.72	518.971
1198.52	527.777
1201.33	526.66
1204.13	525.826
1206.94	529.439
1209.74	525.114
1212.54	534.212
1215.34	524.239
1218.14	532.052
1220.94	522.626
1223.74	534.019
1226.54	523.87
1229.33	524.675
1232.13	520.802
1234.92	523.425
1237.71	508.517
1240.5	523.477
1243.3	513.369
1246.09	514.597
1248.87	518.217
1251.66	512.492
1254.45	524.974
1257.23	517.975
1260.02	527.446
1262.8	520.74
1265.59	528.581
1268.37	532.714
1271.15	537.138
1273.93	528.738
1276.71	534.687
1279.48	538.672
1282.26	558.588
1285.04	567.821
1287.81	580.798
1290.58	616.873
1293.36	629.947
1296.13	649.593
1298.9	632.156
1301.67	625.895
1304.44	613.938
1307.21	599.211
1309.98	596.487
1312.74	587.473
1315.51	583.756
1318.27	590.102
1321.03	579.453
1323.8	577.106
1326.56	581.055
1329.32	582.563
1332.08	585.139
1334.83	578.513
1337.59	583.657
1340.35	588.878
1343.1	592.654
1345.86	593.109
1348.61	589.318
1351.36	602.326
1354.11	598.114
1356.86	595.795
1359.61	597.07
1362.36	595.293
1365.11	584.082
1367.86	580.293
1370.6	578.807
1373.35	591.58
1376.09	594.342
1378.83	609.307
1381.57	624.549
1384.31	625.765
1387.05	612.864
1389.79	600.093
1392.53	579.183
1395.27	564.518
1398	553.821
1400.74	538.636
1403.47	537.224
1406.2	535.165
1408.94	544.244
1411.67	533.742
1414.4	537.177
1417.12	540.413
1419.85	543.347
1422.58	548.305
1425.31	553.984
1428.03	563.611
1430.75	577.35
1433.48	593.827
1436.2	624.575
1438.92	674.916
1441.64	729.146
1444.36	781.972
1447.08	813.998
1449.79	848.029
1452.51	846.227
1455.23	828.818
1457.94	804.802
1460.66	772.268
1463.37	723.489
1466.08	673.633
1468.79	637.647
1471.5	606.666
1474.21	583.925
1476.92	563.824
1479.62	566.218
1482.33	557.546
1485.03	552.6
1487.74	552.737
1490.44	553.603
1493.14	556.487
1495.84	547.414
1498.54	547.366
1501.24	546.185
1503.94	545.823
1506.63	544.182
1509.33	539.636
1512.03	544.131
1514.72	538.813
1517.41	544.218
1520.11	542.474
1522.8	544.157
1525.49	545.996
1528.18	541.125
1530.87	545.174
1533.55	543.767
1536.24	534.442
1538.93	548.165
1541.61	545.393
1544.29	541.839
1546.98	539.791
1549.66	545.335
1552.34	547.668
1555.02	548.379
1557.7	542.586
1560.38	545.988
1563.05	541.201
1565.73	534.701
1568.4	548.279
1571.08	542.417
1573.75	547.895
1576.42	548.02
1579.09	548.35
1581.77	550.912
1584.43	542.427
1587.1	551.406
1589.77	539.393
1592.44	550.241
1595.1	559.523
1597.77	549.62
1600.43	552.856
1603.09	557.482
1605.76	554.764
1608.42	551.994
1611.08	554.423
1613.74	554.978
1616.39	554.733
1619.05	549.789
1621.71	555.596
1624.36	550.951
1627.02	549.804
1629.67	543.356
1632.32	547.102
1634.97	549.173
1637.62	562.527
1640.27	556.076
1642.92	557.901
1645.57	560.11
1648.22	556.513
1650.86	556.982
1653.51	560.576
1656.15	560.923
1658.79	557.924
1661.44	564.22
1664.08	563.236
1666.72	562.326
1669.36	557.927
1671.99	558.662
1674.63	563.493
1677.27	557.504
1679.9	564.97
1682.54	559.743
1685.17	555.876
1687.81	557.496
1690.44	565.99
1693.07	553.603
1695.7	560.569
1698.33	563.914
1700.96	557.758
1703.58	560.246
1706.21	558.893
1708.83	565.363
1711.46	560.333
1714.08	564.989
1716.7	562.782
1719.32	568.395
1721.94	574.437
1724.56	570.077
1727.18	577.011
1729.8	584.489
1732.42	592.533
1735.03	598.248
1737.65	613.732
1740.26	633.956
1742.88	669.716
1745.49	685.153
1748.1	709.243
1750.71	732.185
1753.32	742.463
1755.93	756.685
1758.53	764.775
1761.14	776.354
1763.75	788.71
1766.35	806.908
1768.96	811.073
1771.56	810.265
1774.16	784.905
1776.76	758.257
1779.36	736.914
1781.96	688.399
1784.56	657.004
1787.16	631.221
1789.75	612.414
1792.35	592.124
1794.94	593.767
1797.54	579.208
1800.13	569.869
1802.72	579.175
1805.31	574.947
1807.9	574.699
1810.49	567.684
1813.08	571.219
1815.67	565.583
1818.25	563.763
1820.84	566.681
1823.42	561.923
1826.01	560.197
1828.59	572.756
1831.17	567.697
1833.75	562.565
1836.33	563.244
1838.91	557.08
1841.49	555.904
1844.07	563.934
1846.64	557.064
1849.22	561.136
1851.79	564.368
1854.36	555.254
1856.94	554.837
1859.51	554.353
1862.08	557.059
1864.65	560.797
1867.22	557.33
1869.79	557.864
1872.35	556.459
1874.92	560.499
1877.49	562.939
1880.05	561.065
1882.61	560.685
1885.18	559.023
1887.74	560.506
1890.3	552.794
1892.86	563.72
1895.42	575.634
1897.97	558.357
1900.53	556.627
1903.09	564.52
1905.64	564.22
1908.2	562.255
1910.75	559.35
1913.3	565.244
1915.86	558.485
1918.41	557.977
1920.96	554.531
1923.5	556.179
1926.05	554.977
1928.6	562.121
1931.15	560.248
1933.69	555.475
1936.24	553.836
1938.78	556.713
1941.32	554.894
1943.86	555.954
1946.4	552.896
1948.94	557.144
1951.48	554.408
1954.02	550.969
1956.56	551.981
1959.09	555.923
1961.63	556.248
1964.16	549.934
1966.7	553.36
1969.23	559.842
1971.76	552.553
1974.29	545.37
1976.82	555.216
1979.35	555.629
1981.88	548.819
1984.41	558.133
1986.93	554.517
1989.46	553.313
1991.98	555.126
1994.51	549.886
1997.03	558.609
1999.55	557.637
2002.07	557.76
2004.59	559.068
2007.11	556.314
2009.63	559.123
2012.15	552.459
2014.66	555.79
2017.18	559.486
2019.69	560.089
2022.21	560.896
2024.72	559.559
2027.23	563.171
2029.75	550.765
2032.26	558.268
2034.77	567.105
2037.27	559.452
2039.78	564.06
2042.29	557.556
2044.79	561.013
2047.3	563.153
2049.8	556.159
2052.31	562.094
2054.81	559.388
2057.31	559.976
2059.81	556.028
2062.31	558.457
2064.81	562.423
2067.31	556.042
2069.8	555.404
2072.3	553.244
2074.79	556.355
2077.29	553.613
2079.78	554.453
2082.27	549.541
2084.77	550.802
2087.26	559.495
2089.75	547.281
2092.24	554.899
2094.72	556.524
2097.21	558.533
2099.7	553.756
2102.18	557.541
2104.67	551.766
2107.15	554.777
2109.63	560.73
2112.11	551.228
2114.6	560.661
2117.08	557.036
2119.56	559.856
2122.03	561.136
2124.51	551.04
2126.99	555.162
2129.46	557.496
2131.94	556.403
2134.41	561.365
2136.89	552.588
2139.36	556.067
2141.83	555.623
2144.3	555.394
2146.77	558.32
2149.24	560.511
2151.71	558.5
2154.17	560.493
2156.64	562.103
2159.1	547.805
2161.57	564.302
2164.03	557.122
2166.49	559.264
2168.96	560.1
2171.42	562.851
2173.88	562.475
2176.34	564.03
2178.79	559.95
2181.25	560.463
2183.71	561.744
2186.16	561.266
2188.62	560.969
2191.07	559.008
2193.53	564.783
2195.98	563.79
2198.43	562.281
2200.88	565.172
2203.33	565.829
2205.78	559.563
2208.23	556.061
2210.67	550.154
2213.12	560.101
2215.56	560.727
2218.01	555.286
2220.45	553.501
2222.89	553.289
2225.33	553.04
2227.78	554.995
2230.22	554.097
2232.66	550.082
2235.09	547.611
2237.53	554.143
2239.97	552.387
2242.4	554.587
2244.84	556.208
2247.27	549.724
2249.7	555.293
2252.14	554.589
2254.57	544.87
2257	548.43
2259.43	548.178
2261.86	558.266
2264.28	548.362
2266.71	552.642
2269.14	554.099
2271.56	551.794
2273.99	544.333
2276.41	553.526
2278.83	547.614
2281.26	550.315
2283.67	550.442
2286.1	549.813
2288.52	557.058
2290.93	553.724
2293.35	554.827
2295.77	550.622
2298.18	556.198
2300.6	551.132
2303.01	548.347
2305.43	551.778
2307.84	548.284
2310.25	552.752
2312.66	548.57
2315.07	555.787
2317.48	544.885
2319.89	550.411
2322.29	554.504
2324.7	545.552
2327.11	546.64
2329.51	548.96
2331.91	552.308
2334.32	542.86
2336.72	549.934
2339.12	546.372
2341.52	540.654
2343.92	545.951
2346.32	541.529
2348.72	542.582
2351.11	552.206
2353.51	550.243
2355.91	547.986
2358.3	543.75
2360.69	536.637
2363.09	546.058
2365.48	545.783
2367.87	536.996
2370.26	543.257
2372.65	550.405
2375.04	542.386
2377.42	548.925
2379.81	551.448
2382.2	548.554
2384.58	550.477
2386.97	545.171
2389.35	544.367
2391.73	549.452
2394.11	551.935
2396.5	547.559
2398.87	539.281
2401.25	545.652
2403.63	546.822
2406.01	543.501
2408.39	546.038
2410.76	545.444
2413.14	540.565
2415.51	547.765
2417.89	539.008
2420.26	540.791
2422.63	544.155
2425	543.167
2427.37	544.176
2429.74	547.545
2432.11	546.573
2434.47	545.323
2436.84	542.249
2439.21	547.221
2441.57	547.398
2443.93	542.225
2446.3	544.052
2448.66	538.771
2451.02	535.803
2453.38	532.361
2455.74	535.713
2458.1	543.673
2460.46	541.897
2462.82	530.351
2465.17	539.115
2467.53	536.648
2469.88	539.637
2472.24	533.072
2474.59	541.297
2476.94	541.206
2479.29	534.147
2481.64	544.178
2483.99	538.002
2486.34	532.59
2488.69	541.182
2491.04	547.036
2493.38	537.551
2495.73	542.234
2498.08	539.378
2500.42	536.518
2502.76	536.334
2505.11	539.562
2507.45	539.986
2509.79	542.306
2512.13	545.788
2514.47	541.207
2516.8	542.767
2519.14	534.5
2521.48	540.194
2523.81	535.02
2526.15	536.431
2528.48	535.897
2530.81	536.505
2533.15	532.61
2535.48	537.208
2537.81	539.801
2540.14	539.771
2542.47	529.215
2544.8	535.289
2547.12	536.772
2549.45	533.72
2551.77	540.696
2554.1	540.449
2556.42	539.916
2558.75	541.411
2561.07	540.277
2563.39	540.757
2565.71	535.328
2568.03	534.782
2570.35	534.985
2572.67	540.842
2574.99	548.14
2577.3	536.961
2579.62	540.376
2581.93	538.786
2584.25	536.373
2586.56	538.317
2588.87	540.963
2591.19	536.342
2593.5	527.877
2595.81	542.386
2598.11	538.229
2600.42	542.651
2602.73	540.116
2605.04	536.559
2607.34	530.156
2609.65	533.529
2611.95	533.503
2614.26	527.91
2616.56	530.773
2618.86	524.485
2621.16	532.303
2623.46	533.999
2625.76	528.811
2628.06	528.704
2630.36	531.762
2632.65	529.711
2634.95	529.152
2637.25	528.684
2639.54	532.716
2641.83	526.236
2644.13	528.129
2646.42	520.086
2648.71	523.051
2651	521.577
2653.29	530.744
2655.58	542.675
2657.87	525.981
2660.15	530.626
2662.44	532.584
2664.72	527.416
2667.01	531.188
2669.29	531.211
2671.58	526.882
2673.86	528.494
2676.14	533.163
2678.42	527.885
2680.7	528.5
2682.98	518.75
2685.26	519.174
2687.54	515.412
2689.81	516.435
2692.09	518.695
2694.36	518.259
2696.64	511.2
2698.91	506.321
2701.18	511.521
2703.45	511.319
2705.72	508.247
2707.99	512.169
2710.26	506.839
2712.53	516.88
2714.8	514.178
2717.07	512.113
2719.33	518.026
2721.6	517.234
2723.86	528.555
2726.13	529.548
2728.39	532.532
2730.65	540.328
2732.91	549.261
2735.17	552.441
2737.43	559.41
2739.69	559.203
2741.95	563.283
2744.21	559.544
2746.46	553.734
2748.72	549.108
2750.97	543.667
2753.23	547.007
2755.48	535.344
2757.73	528.742
2759.98	527.294
2762.24	518.933
2764.49	515.439
2766.73	509.592
2768.98	505.356
2771.23	502.401
2773.48	501.458
2775.72	497.455
2777.97	493.385
2780.21	489.662
2782.46	491.602
2784.7	490.569
2786.94	488.088
2789.18	483.342
2791.42	479.705
2793.66	478.484
2795.9	476.177
2798.14	473.661
2800.38	471.656
2802.61	475.752
2804.85	474.353
2807.08	468.677
2809.32	470.164
2811.55	465.775
2813.78	464.598
2816.02	467.052
2818.25	463.863
2820.48	466.437
2822.71	466.009
2824.94	466.721
2827.16	467.106
2829.39	462.873
2831.61	461.831
2833.84	465.792
2836.06	466.198
2838.29	462.698
2840.51	461.701
2842.73	459.836
2844.96	462.278
2847.18	465.131
2849.4	467.822
2851.61	468.227
2853.83	469.717
2856.05	472.644
2858.27	476.215
2860.48	480.265
2862.7	502.043
2864.91	525.936
2867.13	553.952
2869.34	601.339
2871.55	656.283
2873.76	712.43
2875.97	767.64
2878.18	801.465
2880.39	816.288
2882.6	814.354
2884.81	793.349
2887.01	764.883
2889.22	741.866
2891.42	731.906
2893.63	716.488
2895.83	711.552
2898.03	717.141
2900.23	722.574
2902.43	715.961
2904.63	722.808
2906.83	731.413
2909.03	737.82
2911.09	732.068
2913.31	734.804
2915.54	747.651
2917.76	761.533
2919.99	783.149
2922.21	810.105
2924.43	869.911
2926.65	920.053
2928.87	1010.28
2931.09	1138.03
2933.31	1344.54
2935.53	1604.17
2937.75	1947.3
2939.97	2314.1
2942.18	2592.29
2944.4	2724.67
2946.61	2679.54
2948.83	2517.6
2951.04	2257.23
2953.25	1995.36
2955.47	1752.13
2957.68	1530.81
2959.89	1381.22
2962.1	1274.89
2964.31	1166.19
2966.52	1108.31
2968.73	1057.07
2970.93	1018.66
2973.14	988.926
2975.35	958.9
2977.55	952.132
2979.76	948.491
2981.96	958.804
2984.16	979.407
2986.37	1028.3
2988.57	1109.52
2990.77	1202.25
2992.97	1278.91
2995.17	1338.63
2997.37	1389.97
2999.57	1393.15
3001.77	1377.57
3003.96	1349.43
3006.16	1300.23
3008.36	1222.7
3010.55	1153.84
3012.75	1082.15
3014.94	1009.66
3017.13	924.531
3019.32	851.538
3021.52	793.303
3023.71	717.25
3025.9	671.44
3028.09	632.896
3030.28	592.373
3032.46	559.977
3034.65	537.078
3036.84	517.44
3039.02	503.152
3041.21	481.712
3043.39	468.982
3045.58	472.487
3047.76	457.842
3049.94	443.722
3052.13	447.295
3054.31	431.973
3056.49	431.831
3058.67	438.019
3060.85	421.838
3063.03	426
3065.2	420.744
3067.38	423.642
3069.56	414.854
3071.73	409.854
3073.91	412.005
3076.08	406.554
3078.26	411.566
3080.43	413.039
3082.6	411.812
3084.77	404.28
3086.95	401.677
3089.12	400.517
3091.29	393.324
3093.46	397.77
3095.62	404.852
3097.79	387.861
3099.96	389.891
3102.12	389.374
3104.29	394.105
3106.45	389.854
3108.62	396.22
3110.78	389.105
3112.95	386.597
3115.11	389.37
3117.27	390.714
3119.43	388.721
3121.59	383.536
3123.75	380.966
3125.91	380.727
3128.07	387.193
3130.22	386.316
3132.38	388.049
3134.54	378.154
3136.69	379.148
3138.85	382.976
3141	388.216
3143.16	382.61
3145.31	379.244
3147.46	383.605
3149.61	385.843
3151.76	385.815
3153.91	376.738
3156.06	386.611
3158.21	385.779
3160.36	380.804
3162.51	373.715
3164.65	381.708
3166.8	384.295
3168.94	389.153
3171.09	384.844
3173.23	380.275
3175.38	385.745
3177.52	382.87
3179.66	382.965
3181.8	375.862
3183.94	379.953
3186.08	381.179
3188.22	382.36
3190.36	382.69
3192.5	381.961
3194.63	380.747
3196.77	384.71
3198.91	379.537
3201.04	383.753
3203.18	384.762
3205.31	380.48
3207.44	385.694
3209.58	383.444
3211.71	376.896
3213.84	381.569
3215.97	380.82
3218.1	386.09
3220.23	386.731
3222.36	377.741
3224.49	380.617
3226.61	381.925
3228.74	382.077
3230.87	376.514
3232.99	376.983
3235.11	378.302
3237.24	371.938
3239.36	370.522
3241.48	363.712
3243.61	371.093
3245.73	371.351
3247.85	363.098
3249.97	364.23
3252.09	360.23
3254.2	365.763
3256.32	367.519
3258.44	361.301
3260.56	366.044
3262.67	355.545
3264.79	362.547
3266.9	360.753
3269.02	358.056
3271.13	356.281
3273.24	356.969
3275.35	359.785
3277.46	357.487
3279.57	351.458
3281.68	351.472
3283.79	352.325
3285.9	349.441
3288.01	351.806
3290.12	359.104
3292.22	347.822
3294.33	351.76
3296.43	344.007
3298.54	352.376
3300.64	344.159
3302.75	351.709
3304.85	349.052
3306.95	345.558
3309.05	351.448
3311.15	340.042
3313.25	348.704
3315.35	341.557
3317.45	345.847
3319.55	347.063
3321.65	341.864
3323.74	344.102
3325.84	348.459
3327.93	349.281
3330.03	343.879
3332.12	342.677
3334.21	350.004
3336.31	347.006
3338.4	346.957
3340.49	344.624
3342.58	338.666
3344.67	341.402
3346.76	329.203
3348.85	333.728
3350.94	334.166
3353.02	334.752
3355.11	339.987
3357.2	341.834
3359.28	341.461
3361.37	345.013
3363.45	343.952
3365.53	342.051
3367.62	342.775
3369.7	336.649
3371.78	341.191
3373.86	335.163
3375.94	338.715
3378.02	339.869
3380.1	332.087
3382.18	336.997
3384.25	338.978
3386.33	344.305
3388.41	337.303
3390.48	338.364
3392.56	338.098
3394.63	334.908
3396.71	328.19
3398.78	333.551
3400.85	335.315
3402.92	340.658
3404.99	336.438
3407.06	331.568
3409.13	335.956
3411.2	331.435
3413.27	333.654
3415.34	330.468
3417.4	327.626
3419.47	331.39
3421.54	331.887
3423.6	331.27
3425.67	331.511
3427.73	328.686
3429.79	325.982
3431.86	322.796
3433.92	332.758
3435.98	325.446
3438.04	328.434
3440.1	328.506
3442.16	332.4
3444.22	324.462
3446.27	321.067
3448.33	326.952
3450.39	323.061
3452.44	330.986
3454.5	325.965
3456.55	329.751
3458.61	325.349
3460.66	329.103
3462.71	324.786
3464.77	324.294
3466.82	328.612
3468.87	322.432
3470.92	326.188
3472.97	324.995
3475.02	325.404
3477.06	325.479
3479.11	320.145
3481.16	321.784
3483.2	319.704
3485.25	323.599
3487.3	326.244
3489.34	317.62
3491.38	319.486
3493.43	319.082
3495.47	321.045
3497.51	316.728
3499.55	322.086
