200.057	9.03052
203.219	11.8508
206.378	14.667
209.539	15.2348
212.696	15.5814
215.854	11.7647
219.009	7.51224
222.165	11.6082
225.318	8.63947
228.472	8.1481
231.622	10.4539
234.774	12.1583
237.923	9.33545
241.07	8.69916
244.217	2.12131
247.364	5.8624
250.508	5.47217
253.652	7.38461
256.794	-1.39413
259.937	-0.553955
263.077	2.22672
266.216	-1.20367
269.354	0.926971
272.491	6.34644
275.626	2.5029
278.761	8.3486
281.895	14.7526
285.027	11.9955
288.159	19.3511
291.287	23.2792
294.417	25.8491
297.545	36.164
300.672	36.9744
303.799	40.3584
306.922	38.0863
310.046	29.0724
313.169	35.4259
316.289	28.3991
319.41	31.1222
322.528	25.4617
325.647	12.7447
328.764	10.1541
331.879	10.4382
334.993	12.1352
338.107	8.75317
341.219	19.1915
344.332	17.1706
347.441	17.75
350.549	17.8024
353.659	14.8367
356.765	12.7381
359.87	18.6899
362.975	11.5991
366.078	11.8995
369.18	16.3813
372.281	13.5251
375.383	15.5163
378.482	15.8035
381.58	34.7672
384.675	36.746
387.771	52.076
390.865	65.1686
393.959	67.0651
397.052	75.886
400.144	71.418
403.234	71.6114
406.322	70.2496
409.411	60.8096
412.498	53.782
415.583	43.6079
418.668	38.5358
421.75	22.5594
424.834	21.6019
427.916	22.6591
430.996	15.1027
434.074	12.196
437.153	5.40366
440.229	7.22986
443.306	14.0007
446.381	8.46594
449.454	5.66022
452.526	-0.13501
455.599	0.68692
458.669	2.77954
461.738	2.50565
464.806	3.07352
467.873	-1.91217
470.939	6.55722
474.004	5.40454
477.067	-8.25821
480.13	8.62378
483.192	4.80829
486.253	2.37756
489.313	6.33502
492.369	5.88034
495.427	13.2708
498.484	12.9206
501.54	13.6184
504.592	15.3239
507.646	18.9754
510.698	14.8806
513.748	16.9022
516.799	9.63504
519.846	9.63702
522.895	-0.916504
525.94	4.41791
528.985	1.6575
532.03	2.79138
535.073	2.00839
538.114	-1.12405
541.157	-0.57135
544.196	-1.09335
547.234	-4.79419
550.272	-3.23492
553.308	0.0900574
556.344	5.13174
559.378	5.92383
562.411	4.79172
565.444	6.88019
568.475	1.68484
571.505	1.37183
574.535	4.00192
577.563	1.98184
580.588	3.91031
583.615	3.5997
586.64	0.159424
589.662	7.84946
592.686	2.53198
595.708	-1.60989
598.727	-2.58405
601.747	-3.9682
604.765	2.16495
607.783	1.19052
610.798	-8.36328
613.813	-8.18604
616.828	0.724335
619.84	-1.69485
622.851	-4.2106
625.862	2.64868
628.873	-2.77612
631.881	0.705902
634.889	4.36786
637.895	4.55704
640.9	4.42758
643.904	3.47601
646.908	3.04266
649.91	12.1018
652.909	11.7926
655.91	3.84927
658.909	11.129
661.907	19.4512
664.903	12.5889
667.899	14.9166
670.895	6.80573
673.887	16.7621
676.88	8.35339
679.871	15.162
682.862	9.14087
685.851	10.5315
688.84	12.7807
691.827	13.1462
694.812	16.8929
697.799	13.9463
700.782	14.038
703.765	12.1151
706.746	19.0462
709.727	12.1057
712.706	12.5641
715.685	13.0538
718.663	10.7195
721.639	10.4023
724.615	13.3719
727.59	14.0021
730.563	25.0236
733.536	23.6869
736.506	26.838
739.477	22.7534
742.446	33.5471
745.413	22.0521
748.381	17.4763
751.346	20.7349
754.312	17.5024
757.275	16.1962
760.239	15.5211
763.2	10.5759
766.16	9.41986
769.121	9.75793
772.079	6.65399
775.036	3.86145
777.992	4.11612
780.947	5.42197
783.901	2.16357
786.855	0.391693
789.807	1.24588
792.758	3.77704
795.709	-0.178009
798.658	0.611786
801.606	-2.81424
804.554	-1.05777
807.498	-3.09473
810.444	1.10251
813.388	8.27527
816.33	3.69733
819.273	10.9916
822.212	6.70901
825.153	5.57025
828.091	7.11569
831.027	15.8892
833.965	8.61496
836.9	14.5294
839.834	15.9525
842.769	23.9021
845.701	17.0443
848.632	37.2094
851.562	36.1344
854.491	46.7673
857.419	70.61
860.347	98.5243
863.273	139.582
866.196	219.402
869.121	282.494
872.044	291.982
874.966	246.264
877.886	172.606
880.807	114.133
883.726	67.119
886.643	45.8647
889.561	34.0313
892.475	31.3188
895.389	25.2897
898.304	32.1067
901.216	30.6035
904.127	28.0555
907.037	18.346
909.948	28.3202
912.856	23.8909
915.764	32.2566
918.67	34.9365
921.575	34.0928
924.479	24.369
927.381	24.0753
930.284	21.1392
933.185	17.8632
936.086	14.5316
938.983	8.84933
941.882	15.6927
944.78	6.45755
947.675	11.6951
950.571	5.42447
953.464	11.0425
956.358	4.83005
959.249	5.79517
962.139	8.58679
965.028	4.59457
967.919	0.810608
970.806	2.71994
973.693	5.54868
976.578	0.871063
979.463	2.60925
982.346	-0.852234
985.229	1.3186
988.111	2.83423
990.992	1.49655
993.87	3.02866
996.749	6.70575
999.627	4.79318
1002.5	1.05203
1005.38	6.15781
1008.25	5.90314
1011.13	-0.826263
1014	9.07208
1016.87	8.02274
1019.74	12.4931
1022.61	21.3768
1025.48	27.5818
1028.35	30.7751
1031.21	51.1822
1034.08	64.5793
1036.94	86.1004
1039.8	85.5589
1042.67	80.8531
1045.53	72.9905
1048.39	54.2824
1051.25	45.9189
1054.1	30.4644
1056.96	21.2505
1059.82	21.4593
1062.67	5.94495
1065.53	13.4323
1068.38	11.7711
1071.23	10.4513
1074.08	6.92123
1076.93	11.146
1079.78	16.4337
1082.63	28.8376
1085.48	31.2334
1088.32	42.497
1091.17	38.7376
1094.01	39.6653
1096.85	41.7184
1099.7	40.1474
1102.54	37.3332
1105.38	22.1837
1108.21	26.7546
1111.05	16.7036
1113.89	25.6982
1116.72	43.7925
1119.56	53.9114
1122.39	66.7827
1125.23	83.5034
1128.06	86.907
1130.89	73.6789
1133.72	66.7906
1136.55	50.6318
1139.37	33.84
1142.2	26.8869
1145.03	14.7198
1147.85	15.5767
1150.67	11.8923
1153.5	-0.638489
1156.32	5.4072
1159.14	6.44644
1161.96	9.04059
1164.78	-0.0403137
1167.6	1.94705
1170.41	6.7049
1173.23	5.64917
1176.04	6.7182
1178.86	13.3396
1181.67	9.42441
1184.48	7.23166
1187.29	7.49429
1190.1	3.75504
1192.91	5.92709
1195.72	3.06284
1198.52	4.11197
1201.33	2.6416
1204.13	10.2527
1206.94	11.4581
1209.74	11.3385
1212.54	14.1974
1215.34	10.5165
1218.14	10.0349
1220.94	12.2281
1223.74	7.358
1226.54	11.5296
1229.33	12.002
1232.13	2.29715
1234.92	8.84338
1237.71	1.31009
1240.5	2.17813
1243.3	5.40445
1246.09	-4.28128
1248.87	-0.337646
1251.66	-1.06088
1254.45	1.47757
1257.23	4.69589
1260.02	-2.54544
1262.8	7.49493
1265.59	6.19031
1268.37	0.926636
1271.15	3.79956
1273.93	10.546
1276.71	9.65393
1279.48	12.857
1282.26	22.5612
1285.04	34.6586
1287.81	45.6752
1290.58	67.6039
1293.36	67.5351
1296.13	68.3
1298.9	53.9437
1301.67	46.6949
1304.44	40.8432
1307.21	28.3765
1309.98	29.6798
1312.74	26.2124
1315.51	24.2076
1318.27	17.6031
1321.03	16.9757
1323.8	14.4112
1326.56	15.1742
1329.32	25.5677
1332.08	18.4918
1334.83	18.5705
1337.59	16.7323
1340.35	20.0283
1343.1	26.7581
1345.86	28.7434
1348.61	35.5264
1351.36	30.3473
1354.11	35.9882
1356.86	32.3113
1359.61	34.3678
1362.36	47.783
1365.11	43.9969
1367.86	40.0774
1370.6	39.9187
1373.35	29.0195
1376.09	25.0006
1378.83	33.6593
1381.57	47.8085
1384.31	67.215
1387.05	67.5942
1389.79	57.7158
1392.53	44.2863
1395.27	35.4057
1398	19.873
1400.74	13.8708
1403.47	8.60837
1406.2	16.9079
1408.94	10.2822
1411.67	9.63287
1414.4	11.168
1417.12	8.45047
1419.85	15.3398
1422.58	16.1263
1425.31	15.038
1428.03	17.1984
1430.75	22.042
1433.48	10.7839
1436.2	30.5076
1438.92	34.7563
1441.64	58.1187
1444.36	74.3822
1447.08	88.505
1449.79	108.339
1452.51	115.155
1455.23	116.581
1457.94	105.564
1460.66	92.6945
1463.37	71.7316
1466.08	62.3465
1468.79	49.9072
1471.5	29.004
1474.21	24.7951
1476.92	18.7221
1479.62	13.7541
1482.33	14.2169
1485.03	14.7019
1487.74	11.2209
1490.44	9.0766
1493.14	6.05499
1495.84	6.70303
1498.54	12.9057
1501.24	12.0438
1503.94	7.64334
1506.63	6.09738
1509.33	4.66913
1512.03	6.25714
1514.72	6.74622
1517.41	18.054
1520.11	5.82996
1522.8	7.15662
1525.49	5.29596
1528.18	12.9039
1530.87	2.12769
1533.55	1.69431
1536.24	10.6264
1538.93	6.13055
1541.61	5.62735
1544.29	0.652374
1546.98	11.5185
1549.66	6.36771
1552.34	10.4454
1555.02	0.713257
1557.7	14.6541
1560.38	8.07739
1563.05	8.31824
1565.73	9.33478
1568.4	14.937
1571.08	7.70935
1573.75	13.1163
1576.42	10.7947
1579.09	5.36072
1581.77	13.045
1584.43	3.04437
1587.1	13.1196
1589.77	9.57971
1592.44	16.1715
1595.1	6.88177
1597.77	11.2123
1600.43	11.3854
1603.09	6.60553
1605.76	12.5312
1608.42	21.0585
1611.08	15.4019
1613.74	13.25
1616.39	23.1343
1619.05	7.72363
1621.71	17.1968
1624.36	9.99384
1627.02	6.64673
1629.67	10.5688
1632.32	7.80762
1634.97	7.55289
1637.62	5.54355
1640.27	12.563
1642.92	12.4212
1645.57	8.60303
1648.22	9.98245
1650.86	15.898
1653.51	9.13956
1656.15	9.3082
1658.79	12.7067
1661.44	15.4555
1664.08	13.1967
1666.72	15.3331
1669.36	15.1848
1671.99	11.6405
1674.63	10.143
1677.27	12.4917
1679.9	6.99316
1682.54	8.54385
1685.17	11.1185
1687.81	6.99155
1690.44	11.904
1693.07	7.90707
1695.7	12.8867
1698.33	8.55869
1700.96	11.2764
1703.58	10.6812
1706.21	6.26016
1708.83	6.40213
1711.46	19.0989
1714.08	8.98819
1716.7	13.7613
1719.32	10.0574
1721.94	15.2507
1724.56	12.2136
1727.18	24.4333
1729.8	19.8828
1732.42	22.6652
1735.03	21.9342
1737.65	25.2277
1740.26	21.5616
1742.88	21.6934
1745.49	32.2347
1748.1	35.7982
1750.71	46.9
1753.32	41.5482
1755.93	51.3686
1758.53	53.7068
1761.14	65.705
1763.75	72.9661
1766.35	74.7503
1768.96	84.6529
1771.56	72.9813
1774.16	71.1929
1776.76	62.2773
1779.36	58.2253
1781.96	40.1114
1784.56	32.8547
1787.16	23.1123
1789.75	22.0577
1792.35	16.3529
1794.94	19.8675
1797.54	18.9737
1800.13	21.6752
1802.72	9.45007
1805.31	15.6018
1807.9	14.3812
1810.49	11.6268
1813.08	20.0461
1815.67	14.32
1818.25	15.2299
1820.84	16.1207
1823.42	11.0503
1826.01	8.76862
1828.59	17.601
1831.17	5.65015
1833.75	14.5595
1836.33	2.63367
1838.91	14.2961
1841.49	11.8861
1844.07	1.63116
1846.64	10.2266
1849.22	1.41089
1851.79	9.74963
1854.36	7.06873
1856.94	2.54529
1859.51	6.44409
1862.08	-0.951416
1864.65	1.00897
1867.22	7.65991
1869.79	8.67639
1872.35	-3.03668
1874.92	1.84485
1877.49	4.05902
1880.05	0.519897
1882.61	0.499756
1885.18	5.25372
1887.74	5.51276
1890.3	-0.816956
1892.86	-0.205505
1895.42	5.55334
1897.97	5.85944
1900.53	2.37939
1903.09	12.7012
1905.64	-1.80713
1908.2	3.90259
1910.75	5.67871
1913.3	3.50854
1915.86	6.15002
1918.41	2.64386
1920.96	3.0791
1923.5	5.59076
1926.05	-0.205139
1928.6	-0.956787
1931.15	-5.13727
1933.69	1.94885
1936.24	-1.00977
1938.78	-1.53149
1941.32	9.4552
1943.86	0.129822
1946.4	5.12311
1948.94	-4.19763
1951.48	6.79437
1954.02	12.4203
1956.56	-1.8418
1959.09	-1.11963
1961.63	-2.65063
1964.16	0.469482
1966.7	-3.09137
1969.23	-5.90308
1971.76	-2.03943
1974.29	-7.13513
1976.82	-4.94336
1979.35	2.17151
1981.88	-8.63568
1984.41	0.455261
1986.93	-6.64935
1989.46	-6.62378
1991.98	-4.79022
1994.51	-0.15332
1997.03	-7.87921
1999.55	0.0415039
2002.07	-5.94135
2004.59	5.88428
2007.11	0.602539
2009.63	2.91461
2012.15	2.30914
2014.66	-6.44989
2017.18	5.67242
2019.69	0.250793
2022.21	3.63098
2024.72	-2.66711
2027.23	-0.684326
2029.75	3.0343
2032.26	4.10199
2034.77	-1.11578
2037.27	1.88367
2039.78	9.43121
2042.29	1.14624
2044.79	0.379333
2047.3	6.57098
2049.8	3.40356
2052.31	-1.53491
2054.81	-2.99469
2057.31	4.28497
2059.81	0.523315
2062.31	-9.47168
2064.81	2.71307
2067.31	2.96417
2069.8	-4.31091
2072.3	-4.15515
2074.79	0.912964
2077.29	-2.86151
2079.78	-0.0526123
2082.27	1.63922
2084.77	1.77911
2087.26	-0.370239
2089.75	-6.98126
2092.24	2.88184
2094.72	0.410706
2097.21	-5.63275
2099.7	-3.17786
2102.18	-4.07349
2104.67	-7.45746
2107.15	-8.48389
2109.63	2.81726
2112.11	-0.125244
2114.6	-7.7207
2117.08	-6.63507
2119.56	-3.02429
2122.03	-6.19818
2124.51	-3.21643
2126.99	-5.02081
2129.46	-1.92462
2131.94	-6.97925
2134.41	5.63654
2136.89	2.19275
2139.36	0.499573
2141.83	0.551147
2144.3	4.41864
2146.77	2.17957
2149.24	-2.83319
2151.71	2.22833
2154.17	2.63385
2156.64	10.2296
2159.1	6.36432
2161.57	-2.54651
2164.03	6.60486
2166.49	-3.11249
2168.96	2.86395
2171.42	11.7364
2173.88	4.1618
2176.34	-1.02777
2178.79	9.42969
2181.25	0.505981
2183.71	-0.842407
2186.16	1.92151
2188.62	2.30548
2191.07	2.50214
2193.53	3.4101
2195.98	5.18732
2198.43	4.61127
2200.88	-2.47705
2203.33	6.18787
2205.78	6.34662
2208.23	-2.93811
2210.67	-1.52209
2213.12	10.8959
2215.56	5.72095
2218.01	-11.5717
2220.45	2.95917
2222.89	0.95636
2225.33	4.59692
2227.78	2.99622
2230.22	-1.84155
2232.66	-1.44568
2235.09	-2.03046
2237.53	3.3479
2239.97	-4.74963
2242.4	-1.54315
2244.84	3.74475
2247.27	7.14233
2249.7	0.404297
2252.14	2.10321
2254.57	-1.65967
2257	-2.91858
2259.43	1.6438
2261.86	-3.84875
2264.28	3.84723
2266.71	-6.55994
2269.14	1.98511
2271.56	-0.449097
2273.99	-6.51666
2276.41	-6.289
2278.83	-4.49097
2281.26	-1.02917
2283.67	-0.645996
2286.1	-1.90082
2288.52	-1.56659
2290.93	-4.63715
2293.35	-0.25708
2295.77	0.310486
2298.18	-2.49359
2300.6	1.2052
2303.01	2.79462
2305.43	-2.00201
2307.84	-6.97913
2310.25	-3.49457
2312.66	3.01154
2315.07	2.17139
2317.48	-6.98822
2319.89	4.84424
2322.29	-2.29126
2324.7	-1.25232
2327.11	-1.45184
2329.51	-0.32489
2331.91	1.83514
2334.32	-2.68219
2336.72	5.64142
2339.12	1.24994
2341.52	2.98615
2343.92	-2.16022
2346.32	2.06177
2348.72	-11.7734
2351.11	-4.28906
2353.51	-3.43848
2355.91	-0.960022
2358.3	2.65411
2360.69	3.72687
2363.09	-2.09827
2365.48	-5.46973
2367.87	0.859375
2370.26	-2.08679
2372.65	-2.21631
2375.04	-3.64252
2377.42	-8.78491
2379.81	-2.4201
2382.2	-3.14661
2384.58	1.06049
2386.97	0.0626831
2389.35	-4.29773
2391.73	2.59039
2394.11	-6.57074
2396.5	-0.456726
2398.87	0.674194
2401.25	1.7121
2403.63	-7.55762
2406.01	3.04657
2408.39	-2.12292
2410.76	-4.83716
2413.14	-1.97113
2415.51	6.31641
2417.89	-1.5871
2420.26	0.691467
2422.63	-4.35852
2425	0.975647
2427.37	-3.17621
2429.74	7.64642
2432.11	-2.52661
2434.47	-2.26996
2436.84	4.73059
2439.21	2.52087
2441.57	-1.62915
2443.93	-0.540649
2446.3	-4.35077
2448.66	2.58661
2451.02	-2.45178
2453.38	-4.63245
2455.74	-2.63544
2458.1	4.55865
2460.46	-3.80615
2462.82	0.639587
2465.17	-10.4835
2467.53	3.03015
2469.88	-0.444275
2472.24	-3.2619
2474.59	-1.72632
2476.94	-1.63141
2479.29	3.35034
2481.64	4.68402
2483.99	-5.68225
2486.34	-10.1912
2488.69	-1.05072
2491.04	-7.32275
2493.38	-1.44263
2495.73	-3.19641
2498.08	3.87115
2500.42	-0.80011
2502.76	1.24182
2505.11	-7.42322
2507.45	-3.23059
2509.79	3.45447
2512.13	4.28882
2514.47	1.80261
2516.8	2.01935
2519.14	4.99683
2521.48	5.66669
2523.81	-0.0252686
2526.15	3.9491
2528.48	-1.72992
2530.81	-3.77716
2533.15	6.99182
2535.48	1.11206
2537.81	-4.05115
2540.14	4.52576
2542.47	2.11261
2544.8	2.35553
2547.12	-2.12225
2549.45	6.87799
2551.77	1.24707
2554.1	1.55676
2556.42	5.02527
2558.75	5.16547
2561.07	1.96423
2563.39	2.50696
2565.71	8.74481
2568.03	6.01135
2570.35	9.46191
2572.67	9.57269
2574.99	7.93176
2577.3	5.677
2579.62	10.2097
2581.93	3.93683
2584.25	7.72131
2586.56	10.9939
2588.87	9.45917
2591.19	2.54797
2593.5	9.20813
2595.81	4.47113
2598.11	15.4543
2600.42	19.1279
2602.73	5.60706
2605.04	11.1877
2607.34	8.86023
2609.65	12.0752
2611.95	11.9932
2614.26	14.3516
2616.56	9.30811
2618.86	10.6385
2621.16	13.1573
2623.46	20.1401
2625.76	12.5626
2628.06	23.4113
2630.36	17.4096
2632.65	19.952
2634.95	14.6724
2637.25	13.6229
2639.54	20.1652
2641.83	18.4401
2644.13	10.3255
2646.42	16.1442
2648.71	13.0944
2651	13.7548
2653.29	21.0543
2655.58	12.6404
2657.87	24.8254
2660.15	32.3149
2662.44	30.9642
2664.72	31.2575
2667.01	26.153
2669.29	27.9572
2671.58	32.0394
2673.86	22.9358
2676.14	19.5181
2678.42	26.666
2680.7	25.6512
2682.98	26.6018
2685.26	32.5879
2687.54	30.152
2689.81	24.8761
2692.09	25.0017
2694.36	28.2939
2696.64	20.5203
2698.91	19.7132
2701.18	18.5562
2703.45	21.7781
2705.72	14.1866
2707.99	22.8923
2710.26	9.13989
2712.53	18.1379
2714.8	17.8216
2717.07	23.2565
2719.33	22.236
2721.6	23.2205
2723.86	21.9476
2726.13	23.9372
2728.39	26.0858
2730.65	29.2945
2732.91	30.174
2735.17	30.7939
2737.43	36.1566
2739.69	37.501
2741.95	41.2428
2744.21	39.194
2746.46	38.2402
2748.72	34.2991
2750.97	30.5123
2753.23	34.4174
2755.48	32.0176
2757.73	32.4464
2759.98	25.5768
2762.24	31.7914
2764.49	17.4385
2766.73	23.8054
2768.98	17.944
2771.23	17.1933
2773.48	13.0948
2775.72	14.4974
2777.97	12.2994
2780.21	9.01459
2782.46	11.9048
2784.7	12.9024
2786.94	13.1887
2789.18	16.9429
2791.42	10.9918
2793.66	5.43079
2795.9	11.53
2798.14	7.45215
2800.38	11.1938
2802.61	10.1762
2804.85	8.27679
2807.08	10.0804
2809.32	6.60352
2811.55	2.83185
2813.78	1.6684
2816.02	-1.18408
2818.25	5.01843
2820.48	3.4389
2822.71	3.43372
2824.94	3.76843
2827.16	1.49976
2829.39	6.22552
2831.61	6.06494
2833.84	-0.683533
2836.06	-0.651062
2838.29	-0.44989
2840.51	-1.37506
2842.73	2.12384
2844.96	1.0224
2847.18	1.77777
2849.4	0.646057
2851.61	-0.201904
2853.83	1.5011
2856.05	0.307678
2858.27	-2.91162
2860.48	1.42755
2862.7	7.49219
2864.91	12.2661
2867.13	20.7019
2869.34	30.774
2871.55	47.6055
2873.76	66.3757
2875.97	79.9154
2878.18	88.7656
2880.39	103.282
2882.6	105.111
2884.81	90.8012
2887.01	77.7379
2889.22	79.8785
2891.42	64.6937
2893.63	60.9808
2895.83	65.6885
2898.03	61.8155
2900.23	56.4543
2902.43	61.2422
2904.63	61.488
2906.83	65.6574
2909.03	64.2834
2911.09	53.4302
2913.31	59.5616
2915.54	63.8033
2917.76	76.1666
2919.99	65.8718
2922.21	80.7972
2924.43	93.6046
2926.65	107.527
2928.87	125.187
2931.09	162.766
2933.31	199.533
2935.53	271.006
2937.75	385.743
2939.97	503.766
2942.18	624.001
2944.4	713.723
2946.61	729.799
2948.83	697.5
2951.04	599.275
2953.25	507.873
2955.47	414.66
2957.68	335.932
2959.89	262.648
2962.1	241.31
2964.31	208.192
2966.52	179.143
2968.73	152.559
2970.93	140.341
2973.14	126.781
2975.35	121.91
2977.55	122.346
2979.76	122.614
2981.96	106.262
2984.16	129.149
2986.37	143.113
2988.57	151.543
2990.77	185.562
2992.97	230.104
2995.17	262.348
2997.37	290.875
2999.57	300.028
3001.77	300.977
3003.96	292.061
3006.16	279.989
3008.36	251.507
3010.55	245.269
3012.75	201.281
3014.94	191.092
3017.13	155.366
3019.32	142.305
3021.52	111.063
3023.71	102.144
3025.9	84.3015
3028.09	63.3768
3030.28	52.0016
3032.46	49.9651
3034.65	30.8923
3036.84	32.0356
3039.02	16.5356
3041.21	17.8433
3043.39	9.81232
3045.58	11.7161
3047.76	10.158
3049.94	-4.28925
3052.13	7.23871
3054.31	11.3122
3056.49	5.9635
3058.67	0.416687
3060.85	6.13416
3063.03	16.2375
3065.2	2.55792
3067.38	2.95282
3069.56	12.659
3071.73	10.5851
3073.91	9.2793
3076.08	8.87079
3078.26	12.0461
3080.43	9.61102
3082.6	11.2996
3084.77	3.60272
3086.95	-0.271301
3089.12	4.09607
3091.29	0.520569
3093.46	5.60297
3095.62	6.37872
3097.79	0.801086
3099.96	9.95844
3102.12	-0.680725
3104.29	2.08392
3106.45	2.14014
3108.62	0.508972
3110.78	3.82953
3112.95	8.34668
3115.11	-1.56604
3117.27	3.21246
3119.43	1.86957
3121.59	6.44476
3123.75	1.93903
3125.91	-5.54303
3128.07	4.59796
3130.22	0.269104
3132.38	0.951538
3134.54	3.32086
3136.69	-0.466675
3138.85	-2.77246
3141	4.36774
3143.16	0.289001
3145.31	7.73749
3147.46	9.4823
3149.61	4.89252
3151.76	10.638
3153.91	1.80096
3156.06	1.15967
3158.21	7.05164
3160.36	7.17975
3162.51	10.1042
3164.65	1.2215
3166.8	10.2043
3168.94	8.24384
3171.09	-1.50757
3173.23	8.86591
3175.38	7.58368
3177.52	5.41992
3179.66	6.67285
3181.8	12.0733
3183.94	4.20129
3186.08	-0.515686
3188.22	13.012
3190.36	8.70251
3192.5	9.9574
3194.63	12.2198
3196.77	8.5813
3198.91	13.4662
3201.04	19.1229
3203.18	6.83484
3205.31	7.25244
3207.44	5.78241
3209.58	12.6947
3211.71	5.4021
3213.84	14.2791
3215.97	17.2634
3218.1	7.30743
3220.23	18.9067
3222.36	21.2722
3224.49	2.22864
3226.61	12.7513
3228.74	14.5725
3230.87	5.84521
3232.99	12.817
3235.11	12.6703
3237.24	-1.2948
3239.36	3.22998
3241.48	10.6354
3243.61	3.99957
3245.73	10.4321
3247.85	8.87067
3249.97	13.1866
3252.09	5.26172
3254.2	-1.1178
3256.32	7.30518
3258.44	9.69592
3260.56	1.1947
3262.67	3.24658
3264.79	-2.93213
3266.9	-0.85498
3269.02	-7.07629
3271.13	2.47748
3273.24	6.85614
3275.35	2.00598
3277.46	2.27234
3279.57	-5.94318
3281.68	-0.846069
3283.79	0.115906
3285.9	2.453
3288.01	-2.41791
3290.12	0.195313
3292.22	-5.54797
3294.33	5.59418
3296.43	0.775391
3298.54	-1.07404
3300.64	3.0683
3302.75	3.83411
3304.85	3.13422
3306.95	6.08246
3309.05	5.74591
3311.15	-0.0861206
3313.25	6.45087
3315.35	11.8395
3317.45	-9.84888
3319.55	10.6732
3321.65	2.4295
3323.74	13.2719
3325.84	1.92578
3327.93	10.1848
3330.03	12.2701
3332.12	8.0766
3334.21	21.1841
3336.31	3.8045
3338.4	18.5558
3340.49	19.2007
3342.58	7.05273
3344.67	4.60175
3346.76	-4.0741
3348.85	-5.20746
3350.94	-8.95789
3353.02	8.31396
3355.11	5.67242
3357.2	15.2901
3359.28	25.5042
3361.37	17.205
3363.45	12.8297
3365.53	9.06995
3367.62	8.38788
3369.7	12.4398
3371.78	7.83502
3373.86	14.1332
3375.94	9.02679
3378.02	8.58215
3380.1	5.65497
3382.18	3.02698
3384.25	3.12775
3386.33	-4.66913
3388.41	4.60229
3390.48	-1.63586
3392.56	12.4769
3394.63	0.0266724
3396.71	1.00745
3398.78	7.05127
3400.85	4.81543
3402.92	10.7142
3404.99	7.52026
3407.06	3.35065
3409.13	0.0584717
3411.2	0.839661
3413.27	6.38599
3415.34	0.113098
3417.4	6.33911
3419.47	8.36829
3421.54	9.73291
3423.6	8.9624
3425.67	4.81274
3427.73	-7.16156
3429.79	0.91687
3431.86	9.49872
3433.92	-0.484985
3435.98	-3.41461
3438.04	1.20728
3440.1	2.216
3442.16	-4.88605
3444.22	-0.0222778
3446.27	0.5802
3448.33	8.1424
3450.39	3.35754
3452.44	4.8045
3454.5	7.71857
3456.55	8.71222
3458.61	4.94836
3460.66	-3.73096
3462.71	3.37933
3464.77	5.35779
3466.82	4.68695
3468.87	3.43304
3470.92	-2.54132
3472.97	-2.95795
3475.02	6.46344
3477.06	-0.950989
3479.11	-1.6109
3481.16	-0.943848
3483.2	2.57391
3485.25	4.54358
3487.3	1.13208
3489.34	10.4142
3491.38	0.719727
3493.43	2.27197
3495.47	4.65125
3497.51	5.17035
3499.55	-7.41882
