200.057	-93.1023
203.219	-58.4631
206.378	19.1526
209.539	73.9119
212.696	108.705
215.854	211.089
219.009	261.257
222.165	308.754
225.318	337.827
228.472	340.849
231.622	331.991
234.774	301.893
237.923	250.897
241.07	263.518
244.217	239.977
247.364	240.969
250.508	216.661
253.652	246.71
256.794	239.192
259.937	253.759
263.077	281.025
266.216	278.159
269.354	303.956
272.491	345.286
275.626	344.578
278.761	352.536
281.895	416.998
285.027	411.339
288.159	400.761
291.287	375.134
294.417	380.148
297.545	333.225
300.672	304.628
303.799	260.959
306.922	290.407
310.046	261.324
313.169	238.481
316.289	228.014
319.41	271.56
322.528	260.239
325.647	272.365
328.764	255.019
331.879	286.383
334.993	298.817
338.107	322.305
341.219	332.906
344.332	362.301
347.441	425.931
350.549	447.541
353.659	484.119
356.765	532.417
359.87	517.637
362.975	453.767
366.078	413.333
369.18	348.941
372.281	325.968
375.383	293.484
378.482	286.999
381.58	268.416
384.675	273.997
387.771	222.285
390.865	233.234
393.959	279.889
397.052	239.25
400.144	290.875
403.234	252.754
406.322	277.755
409.411	278.115
412.498	284.144
415.583	254.611
418.668	293.342
421.75	248.349
424.834	255.688
427.916	251.045
430.996	274.259
434.074	243.11
437.153	232.325
440.229	193.617
443.306	199.467
446.381	141.253
449.454	174.659
452.526	134.594
455.599	140.712
458.669	139.119
461.738	148.248
464.806	150.629
467.873	143.343
470.939	162.527
474.004	165.676
477.067	180.503
480.13	189.053
483.192	195.259
486.253	214.998
489.313	197.518
492.369	238.685
495.427	220.988
498.484	210.148
501.54	192.212
504.592	188.021
507.646	188.514
510.698	194.224
513.748	169.82
516.799	139.581
519.846	126.763
522.895	160.456
525.94	160.785
528.985	129.418
532.03	160.491
535.073	141.459
538.114	135.853
541.157	149.161
544.196	169.438
547.234	138.148
550.272	146.683
553.308	160.752
556.344	187.108
559.378	199.887
562.411	223.001
565.444	196.055
568.475	202.074
571.505	193.041
574.535	206.674
577.563	212.464
580.588	216.319
583.615	181.353
586.64	162.266
589.662	177.259
592.686	138.226
595.708	131.803
598.727	117.034
601.747	82.246
604.765	42.9582
607.783	20.1314
610.798	12.537
613.813	11.4948
616.828	32.393
619.84	39.4557
622.851	31.5574
625.862	56.9045
628.873	56.102
631.881	55.078
634.889	68.2826
637.895	82.5014
640.9	79.0816
643.904	105.102
646.908	101.394
649.91	114.962
652.909	91.814
655.91	88.8297
658.909	101.898
661.907	103.878
664.903	187.745
667.899	220.489
670.895	239.063
673.887	220.166
676.88	162.434
679.871	108.856
682.862	74.6372
685.851	36.6898
688.84	-14.9155
691.827	1.55752
694.812	-29.5334
697.799	-24.6846
700.782	-55.8476
703.765	-45.5171
706.746	-54.2694
709.727	-56.3598
712.706	-57.7374
715.685	-21.2221
718.663	-6.18167
721.639	-2.94879
724.615	-6.68591
727.59	-2.78705
730.563	33.9524
733.536	32.2011
736.506	34.6156
739.477	63.5825
742.446	32.7459
745.413	46.3228
748.381	58.0222
751.346	41.8345
754.312	41.1919
757.275	23.9012
760.239	41.0833
763.2	54.8987
766.16	1.23949
769.121	-7.51294
772.079	-9.68351
775.036	-64.1528
777.992	-63.9016
780.947	-60.3234
783.901	-88.9116
786.855	-37.8099
789.807	-29.9231
792.758	-49.2856
795.709	-24.2286
798.658	-31.8815
801.606	3.52385
804.554	36.5413
807.498	21.1977
810.444	84.8669
813.388	90.9484
816.33	141.129
819.273	179.707
822.212	234.464
825.153	321.21
828.091	370.44
831.027	376.89
833.965	293.938
836.9	226.697
839.834	227.644
842.769	244.385
845.701	305.599
848.632	379.76
851.562	505.317
854.491	621.173
857.419	603.985
860.347	452.859
863.273	333.904
866.196	143.557
869.121	79.4915
872.044	40.1429
874.966	73.8249
877.886	10.7579
880.807	31.1563
883.726	29.4788
886.643	37.561
889.561	36.4065
892.475	1.9254
895.389	77.5009
898.304	40.4887
901.216	46.8562
904.127	76.8049
907.037	79.3277
909.948	83.5335
912.856	99.3128
915.764	103.692
918.67	100.981
921.575	102.464
924.479	118.221
927.381	133.966
930.284	130.405
933.185	153.756
936.086	140.828
938.983	154.159
941.882	131.381
944.78	147.73
947.675	176.777
950.571	228.632
953.464	295.988
956.358	304.809
959.249	313.426
962.139	242.053
965.028	167.448
967.919	106.531
970.806	53.0835
973.693	19.6403
976.578	-4.69387
979.463	32.6715
982.346	-27.5875
985.229	36.6047
988.111	38.4934
990.992	16.9345
993.87	27.8189
996.749	63.5549
999.627	29.265
1002.5	23.1697
1005.38	29.4421
1008.25	29.3167
1011.13	22.5469
1014	6.92293
1016.87	64.6474
1019.74	105.835
1022.61	117.799
1025.48	157.448
1028.35	179.218
1031.21	169.598
1034.08	135.65
1036.94	127.62
1039.8	109.013
1042.67	80.1925
1045.53	63.9375
1048.39	62.0203
1051.25	71.5717
1054.1	112.016
1056.96	94.9013
1059.82	121.039
1062.67	65.4372
1065.53	88.0317
1068.38	88.311
1071.23	68.0099
1074.08	91.6969
1076.93	75.9477
1079.78	95.9634
1082.63	143.492
1085.48	208.999
1088.32	280.251
1091.17	317.247
1094.01	293.769
1096.85	221.603
1099.7	155.217
1102.54	126.307
1105.38	71.5527
1108.21	-2.6819
1111.05	5.06309
1113.89	0.0757482
1116.72	20.6572
1119.56	23.3481
1122.39	29.4783
1125.23	78.118
1128.06	103.555
1130.89	109.371
1133.72	154.122
1136.55	187.031
1139.37	220.506
1142.2	169.439
1145.03	108.734
1147.85	69.1892
1150.67	38.9708
1153.5	68.5667
1156.32	74.0316
1159.14	6.6352
1161.96	40.0609
1164.78	12.6893
1167.6	19.3496
1170.41	-12.9926
1173.23	22.2181
1176.04	24.5326
1178.86	19.0781
1181.67	-6.64779
1184.48	16.1531
1187.29	-2.5297
1190.1	10.6943
1192.91	8.31923
1195.72	77.4754
1198.52	94.6075
1201.33	98.1817
1204.13	97.53
1206.94	105.905
1209.74	117.067
1212.54	98.0308
1215.34	144.893
1218.14	142.793
1220.94	164.91
1223.74	127.734
1226.54	110.708
1229.33	142.455
1232.13	200.018
1234.92	173.957
1237.71	186.142
1240.5	209.215
1243.3	185.735
1246.09	181.326
1248.87	223.853
1251.66	208.579
1254.45	237.424
1257.23	284.475
1260.02	324.015
1262.8	428.375
1265.59	456.778
1268.37	421.084
1271.15	329.219
1273.93	308.693
1276.71	296.048
1279.48	265.736
1282.26	235.104
1285.04	281.364
1287.81	307.468
1290.58	328.292
1293.36	435.937
1296.13	515.457
1298.9	625.592
1301.67	618.378
1304.44	567.561
1307.21	425.948
1309.98	393.165
1312.74	299.35
1315.51	270.342
1318.27	254.262
1321.03	241.225
1323.8	247.45
1326.56	212.241
1329.32	198.074
1332.08	241.185
1334.83	183.416
1337.59	195.928
1340.35	202.392
1343.1	138.982
1345.86	214.739
1348.61	202.442
1351.36	167.169
1354.11	239.331
1356.86	233.571
1359.61	194.928
1362.36	182.919
1365.11	174.883
1367.86	194.32
1370.6	179.585
1373.35	203.584
1376.09	179.076
1378.83	161.184
1381.57	191.458
1384.31	224.4
1387.05	216.862
1389.79	224.77
1392.53	210.331
1395.27	244.887
1398	197.758
1400.74	277.519
1403.47	313.773
1406.2	339.201
1408.94	352.842
1411.67	394.107
1414.4	425.805
1417.12	470.853
1419.85	542.13
1422.58	613.274
1425.31	608.651
1428.03	671.069
1430.75	787.564
1433.48	732.67
1436.2	706.323
1438.92	625.806
1441.64	572.978
1444.36	536.456
1447.08	528.643
1449.79	501.888
1452.51	492.682
1455.23	482.933
1457.94	440.369
1460.66	427.761
1463.37	427.255
1466.08	479.821
1468.79	529.221
1471.5	559.699
1474.21	522.269
1476.92	414.563
1479.62	359.077
1482.33	261.99
1485.03	226.484
1487.74	201.195
1490.44	229.469
1493.14	271.799
1495.84	180.84
1498.54	181.622
1501.24	147.888
1503.94	189.897
1506.63	194.561
1509.33	163.294
1512.03	196.82
1514.72	179.747
1517.41	155.722
1520.11	152.81
1522.8	138.594
1525.49	196.503
1528.18	180.267
1530.87	202.445
1533.55	155.468
1536.24	216.59
1538.93	190.773
1541.61	238.998
1544.29	193.799
1546.98	203.202
1549.66	221.595
1552.34	248.868
1555.02	218.222
1557.7	234.889
1560.38	238.143
1563.05	270.735
1565.73	231.514
1568.4	232.898
1571.08	259.5
1573.75	221.809
1576.42	225.154
1579.09	235.398
1581.77	218.97
1584.43	283.111
1587.1	290.309
1589.77	250.004
1592.44	251.454
1595.1	278.982
1597.77	269.011
1600.43	282.273
1603.09	228.09
1605.76	265.35
1608.42	228.306
1611.08	189.689
1613.74	201.831
1616.39	206.488
1619.05	224.869
1621.71	216.633
1624.36	210.7
1627.02	193.893
1629.67	228.791
1632.32	211.662
1634.97	165.053
1637.62	184.009
1640.27	197.683
1642.92	213.286
1645.57	211.708
1648.22	232.916
1650.86	238.042
1653.51	251.885
1656.15	212.454
1658.79	237.841
1661.44	228.914
1664.08	283.621
1666.72	251.068
1669.36	227.112
1671.99	214.788
1674.63	218.192
1677.27	293.898
1679.9	261.587
1682.54	242.146
1685.17	243.932
1687.81	256.239
1690.44	269.479
1693.07	193.9
1695.7	228.784
1698.33	205.887
1700.96	231.888
1703.58	237.621
1706.21	204.182
1708.83	256.849
1711.46	278.184
1714.08	370.427
1716.7	529.475
1719.32	686.624
1721.94	805.088
1724.56	776.54
1727.18	737.803
1729.8	665.73
1732.42	616.565
1735.03	579.748
1737.65	555.268
1740.26	507.004
1742.88	427.75
1745.49	420.904
1748.1	373.711
1750.71	333.603
1753.32	362.1
1755.93	308.438
1758.53	298.773
1761.14	279.86
1763.75	267.044
1766.35	265.49
1768.96	267.977
1771.56	273.372
1774.16	340.669
1776.76	307.434
1779.36	272.92
1781.96	278.843
1784.56	273.589
1787.16	239.689
1789.75	235.791
1792.35	225.152
1794.94	264.112
1797.54	282.751
1800.13	261.227
1802.72	270.152
1805.31	286.152
1807.9	271.084
1810.49	249.394
1813.08	210.613
1815.67	237.843
1818.25	210.031
1820.84	210.61
1823.42	166.895
1826.01	217.959
1828.59	186.278
1831.17	241.01
1833.75	185.412
1836.33	204.52
1838.91	171.221
1841.49	179.947
1844.07	158.85
1846.64	224.146
1849.22	189.459
1851.79	211.173
1854.36	240.66
1856.94	189.469
1859.51	118.109
1862.08	40.1262
1864.65	49.7363
1867.22	-39.1846
1869.79	-146.553
1872.35	-160.049
1874.92	-149.327
1877.49	-152.062
1880.05	-1.24015
1882.61	123.15
1885.18	220.374
1887.74	176.562
1890.3	222.815
1892.86	287.461
1895.42	231.699
1897.97	225.862
1900.53	202.546
1903.09	258.767
1905.64	275.858
1908.2	182.626
1910.75	175.988
1913.3	215.189
1915.86	252.026
1918.41	146.623
1920.96	149.181
1923.5	180.622
1926.05	213.415
1928.6	139.092
1931.15	128.824
1933.69	137.064
1936.24	136.222
1938.78	98.1529
1941.32	142.405
1943.86	122.653
1946.4	117.804
1948.94	87.8062
1951.48	139.768
1954.02	118.389
1956.56	88.4307
1959.09	116.065
1961.63	42.9988
1964.16	74.7188
1966.7	53.1838
1969.23	71.1549
1971.76	44.9843
1974.29	31.3631
1976.82	7.68477
1979.35	24.4828
1981.88	80.8521
1984.41	40.4913
1986.93	57.2395
1989.46	72.9869
1991.98	97.0496
1994.51	122.636
1997.03	108.309
1999.55	169.838
2002.07	149.589
2004.59	125.337
2007.11	132.306
2009.63	104.464
2012.15	163.303
2014.66	94.6468
2017.18	150.546
2019.69	153.525
2022.21	196.751
2024.72	172.682
2027.23	160.194
2029.75	198.032
2032.26	198.591
2034.77	200.792
2037.27	221.231
2039.78	186.527
2042.29	200.325
2044.79	182.626
2047.3	164.274
2049.8	199.844
2052.31	172.422
2054.81	231.734
2057.31	201.265
2059.81	156.589
2062.31	142.054
2064.81	131.987
2067.31	138.144
2069.8	79.9573
2072.3	118.379
2074.79	95.4832
2077.29	94.4427
2079.78	86.5373
2082.27	81.4395
2084.77	71.7967
2087.26	69.8583
2089.75	99.8121
2092.24	42.5229
2094.72	98.0845
2097.21	87.3098
2099.7	78.2488
2102.18	115.225
2104.67	55.2477
2107.15	99.5829
2109.63	94.5256
2112.11	90.9584
2114.6	99.5254
2117.08	125.853
2119.56	150.511
2122.03	63.0977
2124.51	132.655
2126.99	137.542
2129.46	156.039
2131.94	124.654
2134.41	144.761
2136.89	152.027
2139.36	124.289
2141.83	144.428
2144.3	168.264
2146.77	191.264
2149.24	183.591
2151.71	170.057
2154.17	203.067
2156.64	230.692
2159.1	184.747
2161.57	163.808
2164.03	229.246
2166.49	206.82
2168.96	249.479
2171.42	214.84
2173.88	223.072
2176.34	220.41
2178.79	228.407
2181.25	214.773
2183.71	203.385
2186.16	158.203
2188.62	210.516
2191.07	208.124
2193.53	230.13
2195.98	208.303
2198.43	182.456
2200.88	172.295
2203.33	118.525
2205.78	144.734
2208.23	110.35
2210.67	141.939
2213.12	159.324
2215.56	131.068
2218.01	128.867
2220.45	96.2133
2222.89	159.697
2225.33	124.75
2227.78	65.7496
2230.22	114.697
2232.66	82.3038
2235.09	75.2263
2237.53	108.45
2239.97	50.8404
2242.4	43.1626
2244.84	39.0279
2247.27	81.7223
2249.7	84.613
2252.14	103.928
2254.57	75.0818
2257	86.6508
2259.43	109.694
2261.86	61.3099
2264.28	52.8675
2266.71	92.3625
2269.14	58.5166
2271.56	92.2757
2273.99	116.613
2276.41	87.5697
2278.83	147.365
2281.26	78.496
2283.67	73.9265
2286.1	85.742
2288.52	89.8061
2290.93	143.17
2293.35	131.947
2295.77	77.1115
2298.18	99.931
2300.6	110.243
2303.01	143.278
2305.43	72.3633
2307.84	124.342
2310.25	64.1129
2312.66	108.073
2315.07	49.0344
2317.48	57.36
2319.89	107.653
2322.29	114.374
2324.7	131.228
2327.11	111.284
2329.51	112.251
2331.91	122.319
2334.32	104.091
2336.72	101.511
2339.12	99.5944
2341.52	139.122
2343.92	128.268
2346.32	130.304
2348.72	127.155
2351.11	100.653
2353.51	93.6839
2355.91	114.462
2358.3	107.044
2360.69	71.7908
2363.09	79.8715
2365.48	56.9869
2367.87	85.4739
2370.26	139.414
2372.65	109.398
2375.04	159.281
2377.42	94.3323
2379.81	135.933
2382.2	140.164
2384.58	155.511
2386.97	168.557
2389.35	101.648
2391.73	136.387
2394.11	124.926
2396.5	136.718
2398.87	165.417
2401.25	161.105
2403.63	113.029
2406.01	156.037
2408.39	171.144
2410.76	181.919
2413.14	186.903
2415.51	223.969
2417.89	144.569
2420.26	145.339
2422.63	152.095
2425	157.621
2427.37	144.971
2429.74	139.531
2432.11	164.344
2434.47	164.304
2436.84	141.073
2439.21	169.16
2441.57	155.019
2443.93	144.135
2446.3	136.286
2448.66	178.936
2451.02	156.307
2453.38	152.659
2455.74	176.914
2458.1	141.98
2460.46	194.282
2462.82	198.064
2465.17	126.513
2467.53	110.203
2469.88	103.767
2472.24	169.63
2474.59	131.097
2476.94	171.942
2479.29	116.92
2481.64	166.317
2483.99	165.356
2486.34	214.066
2488.69	145.354
2491.04	167.901
2493.38	127.855
2495.73	163.21
2498.08	167.934
2500.42	125.058
2502.76	175.979
2505.11	219.715
2507.45	185.826
2509.79	237.449
2512.13	231.081
2514.47	233.308
2516.8	228.502
2519.14	228.698
2521.48	230.027
2523.81	187.51
2526.15	232.73
2528.48	241.266
2530.81	214.62
2533.15	274.619
2535.48	225.698
2537.81	218.232
2540.14	248.228
2542.47	169.536
2544.8	219.874
2547.12	221.361
2549.45	181.904
2551.77	219.118
2554.1	267.707
2556.42	246.356
2558.75	271.356
2561.07	257.976
2563.39	279.359
2565.71	320.634
2568.03	261.122
2570.35	292.503
2572.67	194.714
2574.99	228.698
2577.3	267.107
2579.62	270.622
2581.93	312.3
2584.25	266.473
2586.56	314.59
2588.87	260.718
2591.19	300.302
2593.5	303.182
2595.81	292.817
2598.11	335.673
2600.42	327.75
2602.73	303.552
2605.04	295.166
2607.34	300.612
2609.65	312.575
2611.95	342.289
2614.26	304.119
2616.56	324.493
2618.86	387.626
2621.16	333.31
2623.46	395.712
2625.76	336.591
2628.06	356.754
2630.36	352.846
2632.65	362.011
2634.95	384.697
2637.25	379.464
2639.54	346.89
2641.83	324.97
2644.13	319.635
2646.42	312.363
2648.71	294.481
2651	279.852
2653.29	305.56
2655.58	347.195
2657.87	365.896
2660.15	375.392
2662.44	399.651
2664.72	363.82
2667.01	396.069
2669.29	349.903
2671.58	366.682
2673.86	369.349
2676.14	368.161
2678.42	344.057
2680.7	300.196
2682.98	235.457
2685.26	253.117
2687.54	237.523
2689.81	239.192
2692.09	226.7
2694.36	216.908
2696.64	233.191
2698.91	231.141
2701.18	243.248
2703.45	263.1
2705.72	224.069
2707.99	200.277
2710.26	210.014
2712.53	229.251
2714.8	179.656
2717.07	214.135
2719.33	193.871
2721.6	190.35
2723.86	195.074
2726.13	248.098
2728.39	224.436
2730.65	221.461
2732.91	231.604
2735.17	268.478
2737.43	230.606
2739.69	265.218
2741.95	278.126
2744.21	263.65
2746.46	262.016
2748.72	277.776
2750.97	266.259
2753.23	287.791
2755.48	241.475
2757.73	224.576
2759.98	222.38
2762.24	212.212
2764.49	151.755
2766.73	208.839
2768.98	155.307
2771.23	158.496
2773.48	154.693
2775.72	175.868
2777.97	162.882
2780.21	152.815
2782.46	155.992
2784.7	141.667
2786.94	118.641
2789.18	112.06
2791.42	113.895
2793.66	72.6078
2795.9	62.006
2798.14	91.6076
2800.38	85.2587
2802.61	62.2746
2804.85	40.9299
2807.08	36.2554
2809.32	49.5833
2811.55	29.6963
2813.78	32.956
2816.02	24.0708
2818.25	12.7206
2820.48	4.44831
2822.71	10.6855
2824.94	18.1756
2827.16	16.6357
2829.39	-0.442111
2831.61	32.7759
2833.84	57.2376
2836.06	73.4977
2838.29	80.3282
2840.51	103.287
2842.73	128.241
2844.96	159.068
2847.18	210.573
2849.4	288.361
2851.61	326.643
2853.83	349.184
2856.05	351.068
2858.27	348.376
2860.48	352.234
2862.7	329.632
2864.91	313.286
2867.13	321.456
2869.34	372.144
2871.55	385.807
2873.76	415.588
2875.97	461.312
2878.18	537.026
2880.39	616.093
2882.6	661.454
2884.81	716.678
2887.01	753.844
2889.22	805.596
2891.42	828.556
2893.63	909.011
2895.83	1008.09
2898.03	1136.66
2900.23	1266.21
2902.43	1424.13
2904.63	1623.78
2906.83	1832.58
2909.03	2033.94
2911.09	2268.83
2913.31	2512.42
2915.54	2836.21
2917.76	3041.9
2919.99	3325.88
2922.21	3617.4
2924.43	3832.52
2926.65	4220.7
2928.87	4467.22
2931.09	4566.26
2933.31	4540.6
2935.53	4231.22
2937.75	3840.48
2939.97	3384.93
2942.18	2983.79
2944.4	2613.75
2946.61	2361.79
2948.83	2305.82
2951.04	2193
2953.25	2169.15
2955.47	2148.34
2957.68	2126.33
2959.89	2086.59
2962.1	2061.51
2964.31	2014.01
2966.52	1965.39
2968.73	1837.45
2970.93	1701.55
2973.14	1603.95
2975.35	1479.75
2977.55	1371.11
2979.76	1256.04
2981.96	1160.52
2984.16	1023.95
2986.37	980.406
2988.57	841.545
2990.77	746.626
2992.97	642.935
2995.17	578.389
2997.37	529.126
2999.57	434.401
3001.77	393.312
3003.96	350.233
3006.16	269.159
3008.36	227.99
3010.55	174.233
3012.75	187.85
3014.94	123.441
3017.13	102.607
3019.32	112.442
3021.52	85.4558
3023.71	110.729
3025.9	34.0749
3028.09	81.4484
3030.28	31.3966
3032.46	-0.746477
3034.65	0.670379
3036.84	10.3001
3039.02	24.8252
3041.21	-14.5629
3043.39	-2.34021
3045.58	-40.3127
3047.76	-6.6657
3049.94	-33.4701
3052.13	-5.21207
3054.31	-37.4838
3056.49	-25.9576
3058.67	-15.6783
3060.85	-9.97095
3063.03	-4.40085
3065.2	-2.50198
3067.38	16.3749
3069.56	-2.54986
3071.73	-4.9579
3073.91	-14.2295
3076.08	-43.0085
3078.26	-20.572
3080.43	-13.0503
3082.6	-22.7884
3084.77	-45.6508
3086.95	-32.6687
3089.12	6.16241
3091.29	20.5183
3093.46	4.20323
3095.62	14.1684
3097.79	-13.5416
3099.96	-13.1036
3102.12	-8.1517
3104.29	-50.9838
3106.45	-21.4938
3108.62	-1.74341
3110.78	-24.4133
3112.95	-7.60446
3115.11	-4.25151
3117.27	12.282
3119.43	-13.7353
3121.59	33.3385
3123.75	14.0086
3125.91	-37.1544
3128.07	-18.8407
3130.22	41.7598
3132.38	-11.0131
3134.54	-31.1743
3136.69	-1.16139
3138.85	-34.1369
3141	-22.9015
3143.16	17.3402
3145.31	-27.3619
3147.46	-18.9416
3149.61	-21.0147
3151.76	-6.61216
3153.91	30.6943
3156.06	51.0639
3158.21	81.0594
3160.36	-8.59607
3162.51	33.3586
3164.65	19.0142
3166.8	-6.92635
3168.94	-17.2886
3171.09	16.7831
3173.23	47.7697
3175.38	42.4465
3177.52	41.0359
3179.66	30.7371
3181.8	36.5175
3183.94	-8.2167
3186.08	4.5109
3188.22	52.9656
3190.36	84.957
3192.5	55.4056
3194.63	59.483
3196.77	50.6836
3198.91	65.0586
3201.04	29.9029
3203.18	53.228
3205.31	15.6128
3207.44	4.8295
3209.58	26.7774
3211.71	26.7592
3213.84	2.04499
3215.97	36.5313
3218.1	9.11236
3220.23	-10.3087
3222.36	20.5873
3224.49	40.2514
3226.61	-6.0609
3228.74	3.27536
3230.87	-5.61785
3232.99	24.0346
3235.11	8.46988
3237.24	52.2286
3239.36	-20.2504
3241.48	37.2205
3243.61	-12.5986
3245.73	-20.8018
3247.85	28.763
3249.97	31.4581
3252.09	-30.9239
3254.2	-21.263
3256.32	37.8119
3258.44	22.4655
3260.56	60.68
3262.67	29.847
3264.79	25.6312
3266.9	14.0717
3269.02	-14.7139
3271.13	28.2485
3273.24	27.0625
3275.35	10.666
3277.46	1.16711
3279.57	42.9931
3281.68	11.3423
3283.79	-1.96214
3285.9	-2.98517
3288.01	6.77728
3290.12	-9.37907
3292.22	-49.9196
3294.33	-41.1671
3296.43	-61.843
3298.54	-19.8525
3300.64	-30.5141
3302.75	-20.9912
3304.85	-32.2075
3306.95	14.5524
3309.05	-13.3872
3311.15	-14.9195
3313.25	-5.11527
3315.35	-4.92262
3317.45	-23.2934
3319.55	33.2545
3321.65	4.40744
3323.74	9.45649
3325.84	8.57401
3327.93	-24.5387
3330.03	13.6579
3332.12	1.88474
3334.21	42.5009
3336.31	59.889
3338.4	32.7373
3340.49	27.1603
3342.58	-7.12205
3344.67	-46.345
3346.76	-62.5981
3348.85	-58.8382
3350.94	-24.6716
3353.02	-38.5164
3355.11	-13.4909
3357.2	-7.14216
3359.28	4.40284
3361.37	7.52634
3363.45	52.0245
3365.53	37.7215
3367.62	59.2905
3369.7	4.36399
3371.78	56.4712
3373.86	53.6508
3375.94	18.0282
3378.02	38.7579
3380.1	26.3197
3382.18	66.4622
3384.25	37.9689
3386.33	18.131
3388.41	59.594
3390.48	10.7294
3392.56	-13.2587
3394.63	1.49482
3396.71	3.80561
3398.78	32.4845
3400.85	40.1902
3402.92	-15.0432
3404.99	12.9288
3407.06	34.924
3409.13	61.324
3411.2	22.582
3413.27	14.1506
3415.34	45.9196
3417.4	35.0178
3419.47	9.45402
3421.54	19.3526
3423.6	30.2178
3425.67	35.4904
3427.73	3.18487
3429.79	16.0469
3431.86	10.9218
3433.92	8.57141
3435.98	7.97813
3438.04	-4.46794
3440.1	-9.59301
3442.16	-3.36693
3444.22	11.9224
3446.27	7.26675
3448.33	14.5684
3450.39	8.1094
3452.44	9.46685
3454.5	9.80186
3456.55	51.7502
3458.61	-5.17108
3460.66	7.07083
3462.71	-32.9603
3464.77	-17.408
3466.82	-55.1201
3468.87	25.254
3470.92	-1.00918
3472.97	-37.1415
3475.02	-25.9242
3477.06	4.25965
3479.11	-45.0105
3481.16	3.04127
3483.2	0.774259
3485.25	19.3075
3487.3	-7.14583
3489.34	1.50662
3491.38	16.7442
3493.43	6.67727
3495.47	-18.0703
3497.51	-49.839
3499.55	-24.7163
