3.992094e+002,0.000000e+000
4.011380e+002,0.000000e+000
4.030665e+002,0.000000e+000
4.049951e+002,0.000000e+000
4.069236e+002,0.000000e+000
4.088522e+002,0.000000e+000
4.107807e+002,0.000000e+000
4.127093e+002,0.000000e+000
4.146378e+002,0.000000e+000
4.165664e+002,0.000000e+000
4.184949e+002,0.000000e+000
4.204235e+002,0.000000e+000
4.223520e+002,0.000000e+000
4.242806e+002,0.000000e+000
4.262091e+002,0.000000e+000
4.281377e+002,0.000000e+000
4.300662e+002,0.000000e+000
4.319948e+002,0.000000e+000
4.339233e+002,0.000000e+000
4.358519e+002,0.000000e+000
4.377804e+002,0.000000e+000
4.397090e+002,0.000000e+000
4.416375e+002,0.000000e+000
4.435660e+002,0.000000e+000
4.454946e+002,0.000000e+000
4.474232e+002,0.000000e+000
4.493517e+002,0.000000e+000
4.512802e+002,0.000000e+000
4.532088e+002,0.000000e+000
4.551373e+002,0.000000e+000
4.570659e+002,0.000000e+000
4.589944e+002,0.000000e+000
4.609230e+002,0.000000e+000
4.628515e+002,0.000000e+000
4.647801e+002,0.000000e+000
4.667086e+002,0.000000e+000
4.686372e+002,0.000000e+000
4.705657e+002,0.000000e+000
4.724943e+002,0.000000e+000
4.744228e+002,0.000000e+000
4.763514e+002,0.000000e+000
4.782799e+002,0.000000e+000
4.802085e+002,0.000000e+000
4.821370e+002,0.000000e+000
4.840656e+002,0.000000e+000
4.859941e+002,0.000000e+000
4.879226e+002,0.000000e+000
4.898512e+002,0.000000e+000
4.917798e+002,0.000000e+000
4.937083e+002,0.000000e+000
4.956368e+002,0.000000e+000
4.975654e+002,0.000000e+000
4.994939e+002,0.000000e+000
5.014225e+002,0.000000e+000
5.033510e+002,0.000000e+000
5.052796e+002,0.000000e+000
5.072081e+002,0.000000e+000
5.091367e+002,0.000000e+000
5.110652e+002,0.000000e+000
5.129938e+002,0.000000e+000
5.149223e+002,0.000000e+000
5.168509e+002,0.000000e+000
5.187794e+002,0.000000e+000
5.207079e+002,0.000000e+000
5.226365e+002,0.000000e+000
5.245651e+002,0.000000e+000
5.264936e+002,0.000000e+000
5.284221e+002,0.000000e+000
5.303507e+002,0.000000e+000
5.322792e+002,0.000000e+000
5.342078e+002,0.000000e+000
5.361364e+002,0.000000e+000
5.380649e+002,0.000000e+000
5.399934e+002,0.000000e+000
5.419220e+002,0.000000e+000
5.438505e+002,0.000000e+000
5.457791e+002,0.000000e+000
5.477076e+002,0.000000e+000
5.496362e+002,0.000000e+000
5.515647e+002,0.000000e+000
5.534933e+002,0.000000e+000
5.554218e+002,0.000000e+000
5.573503e+002,0.000000e+000
5.592789e+002,0.000000e+000
5.612075e+002,0.000000e+000
5.631360e+002,0.000000e+000
5.650646e+002,0.000000e+000
5.669931e+002,0.000000e+000
5.689216e+002,0.000000e+000
5.708502e+002,0.000000e+000
5.727787e+002,0.000000e+000
5.747073e+002,0.000000e+000
5.766359e+002,0.000000e+000
5.785644e+002,0.000000e+000
5.804929e+002,0.000000e+000
5.824215e+002,0.000000e+000
5.843500e+002,0.000000e+000
5.862786e+002,0.000000e+000
5.882072e+002,0.000000e+000
5.901357e+002,0.000000e+000
5.920642e+002,0.000000e+000
5.939928e+002,0.000000e+000
5.959213e+002,0.000000e+000
5.978499e+002,0.000000e+000
5.997784e+002,0.000000e+000
6.017070e+002,0.000000e+000
6.036355e+002,0.000000e+000
6.055641e+002,0.000000e+000
6.074926e+002,0.000000e+000
6.094211e+002,0.000000e+000
6.113497e+002,0.000000e+000
6.132783e+002,0.000000e+000
6.152068e+002,0.000000e+000
6.171354e+002,0.000000e+000
6.190639e+002,0.000000e+000
6.209924e+002,0.000000e+000
6.229210e+002,0.000000e+000
6.248495e+002,0.000000e+000
6.267781e+002,0.000000e+000
6.287067e+002,0.000000e+000
6.306352e+002,0.000000e+000
6.325637e+002,0.000000e+000
6.344923e+002,0.000000e+000
6.364208e+002,0.000000e+000
6.383494e+002,0.000000e+000
6.402780e+002,0.000000e+000
6.422065e+002,0.000000e+000
6.441350e+002,0.000000e+000
6.460636e+002,0.000000e+000
6.479921e+002,0.000000e+000
6.499207e+002,0.000000e+000
6.518492e+002,0.000000e+000
6.537778e+002,0.000000e+000
6.557063e+002,0.000000e+000
6.576349e+002,0.000000e+000
6.595634e+002,0.000000e+000
6.614919e+002,0.000000e+000
6.634205e+002,0.000000e+000
6.653491e+002,0.000000e+000
6.672776e+002,0.000000e+000
6.692062e+002,0.000000e+000
6.711347e+002,0.000000e+000
6.730632e+002,0.000000e+000
6.749918e+002,9.053645e+001
6.769203e+002,9.027733e+001
6.788489e+002,8.995878e+001
6.807775e+002,8.942003e+001
6.827060e+002,8.892007e+001
6.846345e+002,8.846186e+001
6.865631e+002,8.822753e+001
6.884916e+002,8.807133e+001
6.904202e+002,8.782143e+001
6.923488e+002,8.773726e+001
6.942773e+002,8.775285e+001
6.962058e+002,8.782193e+001
6.981344e+002,8.802771e+001
7.000629e+002,8.828805e+001
7.019915e+002,8.861079e+001
7.039200e+002,8.893722e+001
7.058486e+002,8.913554e+001
7.077771e+002,8.926357e+001
7.097057e+002,8.938276e+001
7.116342e+002,8.953886e+001
7.135627e+002,8.973111e+001
7.154913e+002,9.011118e+001
7.174199e+002,9.070380e+001
7.193484e+002,9.144921e+001
7.212770e+002,9.222060e+001
7.232055e+002,9.284950e+001
7.251340e+002,9.341491e+001
7.270626e+002,9.369792e+001
7.289911e+002,9.359356e+001
7.309197e+002,9.304514e+001
7.328483e+002,9.199234e+001
7.347768e+002,9.078263e+001
7.367053e+002,9.000495e+001
7.386339e+002,8.968872e+001
7.405624e+002,8.953558e+001
7.424910e+002,8.931061e+001
7.444196e+002,8.894931e+001
7.463481e+002,8.847820e+001
7.482766e+002,8.774413e+001
7.502052e+002,8.658478e+001
7.521337e+002,8.504536e+001
7.540623e+002,8.367292e+001
7.559908e+002,8.324009e+001
7.579194e+002,8.422537e+001
7.598479e+002,8.616964e+001
7.617765e+002,8.820657e+001
7.637050e+002,8.973557e+001
7.656335e+002,9.080246e+001
7.675621e+002,9.165961e+001
7.694907e+002,9.239809e+001
7.714192e+002,9.302950e+001
7.733478e+002,9.354234e+001
7.752763e+002,9.393470e+001
7.772048e+002,9.427778e+001
7.791334e+002,9.462516e+001
7.810620e+002,9.494808e+001
7.829905e+002,9.519886e+001
7.849191e+002,9.544868e+001
7.868476e+002,9.571439e+001
7.887761e+002,9.595190e+001
7.907047e+002,9.618020e+001
7.926332e+002,9.634031e+001
7.945618e+002,9.644036e+001
7.964904e+002,9.652434e+001
7.984189e+002,9.661138e+001
8.003474e+002,9.661742e+001
8.022760e+002,9.659011e+001
8.042045e+002,9.661633e+001
8.061331e+002,9.665871e+001
8.080616e+002,9.667561e+001
8.099902e+002,9.667890e+001
8.119187e+002,9.667413e+001
8.138473e+002,9.671500e+001
8.157758e+002,9.674297e+001
8.177043e+002,9.675079e+001
8.196329e+002,9.673676e+001
8.215615e+002,9.671872e+001
8.234900e+002,9.669730e+001
8.254186e+002,9.670788e+001
8.273471e+002,9.667576e+001
8.292756e+002,9.663264e+001
8.312042e+002,9.656792e+001
8.331328e+002,9.650351e+001
8.350613e+002,9.638906e+001
8.369899e+002,9.624680e+001
8.389184e+002,9.607135e+001
8.408469e+002,9.584096e+001
8.427755e+002,9.552044e+001
8.447040e+002,9.517153e+001
8.466326e+002,9.484393e+001
8.485612e+002,9.464925e+001
8.504896e+002,9.453789e+001
8.524182e+002,9.436118e+001
8.543468e+002,9.396560e+001
8.562753e+002,9.330422e+001
8.582039e+002,9.242280e+001
8.601324e+002,9.145135e+001
8.620609e+002,9.048305e+001
8.639895e+002,8.956536e+001
8.659181e+002,8.867202e+001
8.678466e+002,8.769815e+001
8.697751e+002,8.667609e+001
8.717037e+002,8.610315e+001
8.736322e+002,8.654844e+001
8.755608e+002,8.795739e+001
8.774894e+002,8.978279e+001
8.794178e+002,9.155951e+001
8.813464e+002,9.304374e+001
8.832750e+002,9.414381e+001
8.852035e+002,9.482197e+001
8.871321e+002,9.511288e+001
8.890607e+002,9.515488e+001
8.909891e+002,9.512678e+001
8.929177e+002,9.505309e+001
8.948463e+002,9.498967e+001
8.967748e+002,9.497800e+001
8.987034e+002,9.501545e+001
9.006320e+002,9.502437e+001
9.025604e+002,9.499503e+001
9.044890e+002,9.494148e+001
9.064176e+002,9.491074e+001
9.083461e+002,9.486527e+001
9.102747e+002,9.478862e+001
9.122032e+002,9.463604e+001
9.141317e+002,9.442211e+001
9.160603e+002,9.419352e+001
9.179889e+002,9.395514e+001
9.199174e+002,9.374226e+001
9.218459e+002,9.365387e+001
9.237745e+002,9.370192e+001
9.257030e+002,9.391172e+001
9.276316e+002,9.422932e+001
9.295602e+002,9.458110e+001
9.314886e+002,9.490128e+001
9.334172e+002,9.511810e+001
9.353458e+002,9.521636e+001
9.372743e+002,9.526270e+001
9.392029e+002,9.524447e+001
9.411315e+002,9.520736e+001
9.430599e+002,9.515102e+001
9.449885e+002,9.505780e+001
9.469171e+002,9.492614e+001
9.488456e+002,9.476077e+001
9.507742e+002,9.455407e+001
9.527028e+002,9.433268e+001
9.546312e+002,9.412559e+001
9.565598e+002,9.401582e+001
9.584884e+002,9.409496e+001
9.604169e+002,9.440257e+001
9.623455e+002,9.482198e+001
9.642740e+002,9.520576e+001
9.662025e+002,9.545697e+001
9.681311e+002,9.558112e+001
9.700597e+002,9.560239e+001
9.719882e+002,9.557077e+001
9.739167e+002,9.550475e+001
9.758453e+002,9.540614e+001
9.777738e+002,9.529270e+001
9.797024e+002,9.518192e+001
9.816310e+002,9.503574e+001
9.835594e+002,9.487656e+001
9.854880e+002,9.471954e+001
9.874166e+002,9.456680e+001
9.893451e+002,9.437383e+001
9.912737e+002,9.418595e+001
9.932023e+002,9.399396e+001
9.951307e+002,9.377140e+001
9.970593e+002,9.352007e+001
9.989879e+002,9.323652e+001
1.000916e+003,9.293315e+001
1.002845e+003,9.262988e+001
1.004774e+003,9.229139e+001
1.006702e+003,9.184794e+001
1.008631e+003,9.129300e+001
1.010559e+003,9.067550e+001
1.012488e+003,8.993305e+001
1.014416e+003,8.903008e+001
1.016345e+003,8.797601e+001
1.018273e+003,8.680846e+001
1.020202e+003,8.556644e+001
1.022130e+003,8.431416e+001
1.024059e+003,8.309318e+001
1.025988e+003,8.191704e+001
1.027916e+003,8.072274e+001
1.029845e+003,7.939258e+001
1.031773e+003,7.781063e+001
1.033702e+003,7.582665e+001
1.035630e+003,7.343174e+001
1.037559e+003,7.072440e+001
1.039487e+003,6.799745e+001
1.041416e+003,6.560010e+001
1.043344e+003,6.392356e+001
1.045273e+003,6.332099e+001
1.047202e+003,6.397874e+001
1.049130e+003,6.546109e+001
1.051059e+003,6.717010e+001
1.052987e+003,6.876609e+001
1.054916e+003,7.033188e+001
1.056844e+003,7.188065e+001
1.058773e+003,7.325110e+001
1.060701e+003,7.411122e+001
1.062630e+003,7.419973e+001
1.064558e+003,7.335082e+001
1.066487e+003,7.157854e+001
1.068416e+003,6.900689e+001
1.070344e+003,6.579477e+001
1.072273e+003,6.206547e+001
1.074201e+003,5.799562e+001
1.076130e+003,5.369773e+001
1.078058e+003,4.941151e+001
1.079987e+003,4.539479e+001
1.081915e+003,4.198193e+001
1.083844e+003,3.945180e+001
1.085773e+003,3.811395e+001
1.087701e+003,3.792133e+001
1.089630e+003,3.868306e+001
1.091558e+003,4.003917e+001
1.093487e+003,4.179803e+001
1.095415e+003,4.380029e+001
1.097344e+003,4.601374e+001
1.099272e+003,4.831072e+001
1.101201e+003,5.063820e+001
1.103129e+003,5.289244e+001
1.105058e+003,5.510539e+001
1.106987e+003,5.730995e+001
1.108915e+003,5.958482e+001
1.110844e+003,6.193032e+001
1.112772e+003,6.423655e+001
1.114701e+003,6.616885e+001
1.116629e+003,6.731735e+001
1.118558e+003,6.742715e+001
1.120486e+003,6.655773e+001
1.122415e+003,6.482054e+001
1.124344e+003,6.242725e+001
1.126272e+003,5.975100e+001
1.128201e+003,5.734899e+001
1.130129e+003,5.575040e+001
1.132058e+003,5.539192e+001
1.133986e+003,5.652535e+001
1.135915e+003,5.919076e+001
1.137843e+003,6.299710e+001
1.139772e+003,6.730138e+001
1.141700e+003,7.159970e+001
1.143629e+003,7.571631e+001
1.145557e+003,7.951482e+001
1.147486e+003,8.273858e+001
1.149415e+003,8.517133e+001
1.151343e+003,8.676023e+001
1.153272e+003,8.764836e+001
1.155200e+003,8.800990e+001
1.157129e+003,8.795976e+001
1.159057e+003,8.756966e+001
1.160986e+003,8.687484e+001
1.162914e+003,8.586784e+001
1.164843e+003,8.447214e+001
1.166771e+003,8.256909e+001
1.168700e+003,8.002471e+001
1.170629e+003,7.662291e+001
1.172557e+003,7.215281e+001
1.174486e+003,6.650989e+001
1.176414e+003,5.990755e+001
1.178343e+003,5.318747e+001
1.180271e+003,4.770715e+001
1.182200e+003,4.466254e+001
1.184128e+003,4.411842e+001
1.186057e+003,4.533070e+001
1.187986e+003,4.745177e+001
1.189914e+003,4.989524e+001
1.191843e+003,5.237314e+001
1.193771e+003,5.475034e+001
1.195700e+003,5.696210e+001
1.197628e+003,5.897965e+001
1.199557e+003,6.086983e+001
1.201485e+003,6.268579e+001
1.203414e+003,6.432240e+001
1.205343e+003,6.546229e+001
1.207271e+003,6.581797e+001
1.209200e+003,6.554183e+001
1.211128e+003,6.531319e+001
1.213057e+003,6.589967e+001
1.214985e+003,6.758755e+001
1.216914e+003,7.007655e+001
1.218842e+003,7.285956e+001
1.220771e+003,7.557075e+001
1.222699e+003,7.812225e+001
1.224628e+003,8.052410e+001
1.226557e+003,8.270885e+001
1.228485e+003,8.456359e+001
1.230414e+003,8.606716e+001
1.232342e+003,8.722282e+001
1.234271e+003,8.809358e+001
1.236199e+003,8.873581e+001
1.238128e+003,8.922537e+001
1.240056e+003,8.961489e+001
1.241985e+003,8.994128e+001
1.243913e+003,9.018420e+001
1.245842e+003,9.035548e+001
1.247771e+003,9.046816e+001
1.249699e+003,9.051512e+001
1.251628e+003,9.048440e+001
1.253556e+003,9.039228e+001
1.255485e+003,9.023176e+001
1.257413e+003,9.001875e+001
1.259342e+003,8.976194e+001
1.261270e+003,8.951322e+001
1.263199e+003,8.931580e+001
1.265127e+003,8.919986e+001
1.267056e+003,8.919103e+001
1.268985e+003,8.930327e+001
1.270913e+003,8.951248e+001
1.272842e+003,8.984016e+001
1.274770e+003,9.030520e+001
1.276699e+003,9.089777e+001
1.278627e+003,9.156738e+001
1.280556e+003,9.229620e+001
1.282484e+003,9.301149e+001
1.284413e+003,9.363819e+001
1.286342e+003,9.407003e+001
1.288270e+003,9.420709e+001
1.290199e+003,9.404342e+001
1.292127e+003,9.379494e+001
1.294056e+003,9.367267e+001
1.295984e+003,9.366761e+001
1.297913e+003,9.364503e+001
1.299841e+003,9.356906e+001
1.301770e+003,9.344429e+001
1.303698e+003,9.333756e+001
1.305627e+003,9.333830e+001
1.307556e+003,9.352121e+001
1.309484e+003,9.383774e+001
1.311413e+003,9.414214e+001
1.313341e+003,9.434873e+001
1.315270e+003,9.451308e+001
1.317198e+003,9.463764e+001
1.319127e+003,9.470509e+001
1.321055e+003,9.473124e+001
1.322984e+003,9.473754e+001
1.324912e+003,9.472197e+001
1.326841e+003,9.468710e+001
1.328770e+003,9.463497e+001
1.330698e+003,9.456357e+001
1.332627e+003,9.442419e+001
1.334555e+003,9.421786e+001
1.336484e+003,9.392562e+001
1.338412e+003,9.354617e+001
1.340341e+003,9.304441e+001
1.342269e+003,9.250210e+001
1.344198e+003,9.183346e+001
1.346126e+003,9.094810e+001
1.348055e+003,8.984440e+001
1.349984e+003,8.854392e+001
1.351912e+003,8.705721e+001
1.353841e+003,8.542436e+001
1.355769e+003,8.380434e+001
1.357698e+003,8.267785e+001
1.359626e+003,8.227855e+001
1.361555e+003,8.263568e+001
1.363483e+003,8.355759e+001
1.365412e+003,8.449171e+001
1.367341e+003,8.512267e+001
1.369269e+003,8.569705e+001
1.371198e+003,8.656862e+001
1.373126e+003,8.784023e+001
1.375055e+003,8.888467e+001
1.376983e+003,8.874198e+001
1.378912e+003,8.751900e+001
1.380840e+003,8.610257e+001
1.382769e+003,8.540009e+001
1.384698e+003,8.545740e+001
1.386626e+003,8.606421e+001
1.388555e+003,8.762045e+001
1.390483e+003,8.951066e+001
1.392412e+003,9.130594e+001
1.394340e+003,9.298932e+001
1.396269e+003,9.452915e+001
1.398197e+003,9.560260e+001
1.400126e+003,9.653616e+001
1.402054e+003,9.712558e+001
1.403983e+003,9.749753e+001
1.405911e+003,9.774444e+001
1.407840e+003,9.795152e+001
1.409769e+003,9.807840e+001
1.411697e+003,9.815504e+001
1.413626e+003,9.819592e+001
1.415554e+003,9.823722e+001
1.417483e+003,9.821549e+001
1.419411e+003,9.812470e+001
1.421340e+003,9.808145e+001
1.423268e+003,9.803133e+001
1.425197e+003,9.787325e+001
1.427125e+003,9.772342e+001
1.429054e+003,9.745497e+001
1.430983e+003,9.704869e+001
1.432911e+003,9.655842e+001
1.434840e+003,9.594225e+001
1.436768e+003,9.456953e+001
1.438697e+003,9.281996e+001
1.440625e+003,9.110753e+001
1.442554e+003,8.905470e+001
1.444482e+003,8.711514e+001
1.446411e+003,8.559593e+001
1.448340e+003,8.423632e+001
1.450268e+003,8.333659e+001
1.452197e+003,8.271548e+001
1.454125e+003,8.244656e+001
1.456054e+003,8.256988e+001
1.457982e+003,8.390312e+001
1.459911e+003,8.569877e+001
1.461839e+003,8.763554e+001
1.463768e+003,8.970581e+001
1.465697e+003,9.209376e+001
1.467625e+003,9.383675e+001
1.469554e+003,9.511982e+001
1.471482e+003,9.615248e+001
1.473411e+003,9.714070e+001
1.475339e+003,9.770577e+001
1.477268e+003,9.813716e+001
1.479196e+003,9.842637e+001
1.481125e+003,9.865495e+001
1.483053e+003,9.880961e+001
1.484982e+003,9.893844e+001
1.486911e+003,9.899342e+001
1.488839e+003,9.904904e+001
1.490768e+003,9.906467e+001
1.492696e+003,9.916167e+001
1.494625e+003,9.923201e+001
1.496553e+003,9.926546e+001
1.498482e+003,9.927230e+001
1.500410e+003,9.933714e+001
1.502339e+003,9.940327e+001
1.504267e+003,9.947102e+001
1.506196e+003,9.943487e+001
1.508125e+003,9.937819e+001
1.510053e+003,9.942757e+001
1.511982e+003,9.948805e+001
1.513910e+003,9.952511e+001
1.515839e+003,9.955465e+001
1.517767e+003,9.952238e+001
1.519696e+003,9.955680e+001
1.521624e+003,9.950595e+001
1.523553e+003,9.951666e+001
1.525481e+003,9.955621e+001
1.527410e+003,9.957658e+001
1.529339e+003,9.959106e+001
1.531267e+003,9.964529e+001
1.533196e+003,9.962601e+001
1.535124e+003,9.959485e+001
1.537053e+003,9.964790e+001
1.538981e+003,9.973778e+001
1.540910e+003,9.973573e+001
1.542838e+003,9.973866e+001
1.544767e+003,9.971777e+001
1.546696e+003,9.975094e+001
1.548624e+003,9.980706e+001
1.550553e+003,9.982564e+001
1.552481e+003,9.984656e+001
1.554410e+003,9.987785e+001
1.556338e+003,9.991183e+001
1.558267e+003,9.996352e+001
1.560195e+003,9.981911e+001
1.562124e+003,9.985426e+001
1.564052e+003,9.989539e+001
1.565981e+003,9.992152e+001
1.567910e+003,9.993825e+001
1.569838e+003,9.987629e+001
1.571767e+003,9.988596e+001
1.573695e+003,9.998355e+001
1.575624e+003,9.997087e+001
1.577552e+003,9.992517e+001
1.579481e+003,9.997751e+001
1.581409e+003,1.000101e+002
1.583338e+003,1.000071e+002
1.585266e+003,1.000001e+002
1.587195e+003,9.997516e+001
1.589124e+003,9.997594e+001
1.591052e+003,9.997294e+001
1.592981e+003,9.995648e+001
1.594909e+003,9.993270e+001
1.596838e+003,9.993554e+001
1.598766e+003,9.993372e+001
1.600695e+003,9.992480e+001
1.602623e+003,9.991943e+001
1.604552e+003,9.993302e+001
1.606480e+003,9.993395e+001
1.608409e+003,9.991516e+001
1.610338e+003,9.988111e+001
1.612266e+003,9.989293e+001
1.614195e+003,9.991928e+001
1.616123e+003,9.987835e+001
1.618052e+003,9.978866e+001
1.619980e+003,9.982636e+001
1.621909e+003,9.985105e+001
1.623837e+003,9.979529e+001
1.625766e+003,9.978413e+001
1.627695e+003,9.979585e+001
1.629623e+003,9.976621e+001
1.631552e+003,9.976958e+001
1.633480e+003,9.978848e+001
1.635409e+003,9.968111e+001
1.637337e+003,9.951912e+001
1.639266e+003,9.959662e+001
1.641194e+003,9.962988e+001
1.643123e+003,9.966441e+001
1.645052e+003,9.970840e+001
1.646980e+003,9.961329e+001
1.648909e+003,9.956661e+001
1.650837e+003,9.966949e+001
1.652766e+003,9.962785e+001
1.654694e+003,9.940574e+001
1.656623e+003,9.946383e+001
1.658551e+003,9.950751e+001
1.660480e+003,9.949677e+001
1.662408e+003,9.943797e+001
1.664337e+003,9.936364e+001
1.666266e+003,9.938217e+001
1.668194e+003,9.933841e+001
1.670123e+003,9.917683e+001
1.672051e+003,9.912332e+001
1.673980e+003,9.912186e+001
1.675908e+003,9.900198e+001
1.677837e+003,9.896506e+001
1.679765e+003,9.892271e+001
1.681694e+003,9.886111e+001
1.683622e+003,9.873942e+001
1.685551e+003,9.851385e+001
1.687479e+003,9.848936e+001
1.689408e+003,9.838475e+001
1.691337e+003,9.823557e+001
1.693265e+003,9.814989e+001
1.695194e+003,9.796136e+001
1.697122e+003,9.761958e+001
1.699051e+003,9.747405e+001
1.700979e+003,9.698581e+001
1.702908e+003,9.664175e+001
1.704836e+003,9.629141e+001
1.706765e+003,9.565082e+001
1.708694e+003,9.504308e+001
1.710622e+003,9.432934e+001
1.712551e+003,9.352265e+001
1.714479e+003,9.269662e+001
1.716408e+003,9.182458e+001
1.718336e+003,9.067298e+001
1.720265e+003,8.962722e+001
1.722193e+003,8.879240e+001
1.724122e+003,8.765977e+001
1.726051e+003,8.651731e+001
1.727979e+003,8.525750e+001
1.729908e+003,8.358691e+001
1.731836e+003,8.178143e+001
1.733765e+003,7.904912e+001
1.735693e+003,7.485618e+001
1.737622e+003,7.207737e+001
1.739550e+003,6.757759e+001
1.741479e+003,6.207227e+001
1.743407e+003,5.644836e+001
1.745336e+003,5.071219e+001
1.747265e+003,4.629103e+001
1.749193e+003,4.378472e+001
1.751122e+003,4.210801e+001
1.753050e+003,4.084573e+001
1.754979e+003,4.025171e+001
1.756907e+003,4.199782e+001
1.758836e+003,4.629104e+001
1.760764e+003,5.214787e+001
1.762693e+003,5.941485e+001
1.764621e+003,6.483905e+001
1.766550e+003,6.872229e+001
1.768479e+003,7.254265e+001
1.770407e+003,7.540785e+001
1.772336e+003,7.813512e+001
1.774264e+003,8.050964e+001
1.776193e+003,8.244624e+001
1.778121e+003,8.450313e+001
1.780050e+003,8.670656e+001
1.781978e+003,8.893530e+001
1.783907e+003,9.080748e+001
1.785835e+003,9.256757e+001
1.787764e+003,9.398982e+001
1.789693e+003,9.503481e+001
1.791621e+003,9.589918e+001
1.793550e+003,9.661771e+001
1.795478e+003,9.710735e+001
1.797407e+003,9.750426e+001
1.799335e+003,9.780626e+001
1.801264e+003,9.804375e+001
1.803192e+003,9.825312e+001
1.805121e+003,9.844057e+001
1.807049e+003,9.859678e+001
1.808978e+003,9.872765e+001
1.810907e+003,9.882904e+001
1.812835e+003,9.893916e+001
1.814764e+003,9.905948e+001
1.816692e+003,9.914117e+001
1.818621e+003,9.921349e+001
1.820549e+003,9.931225e+001
1.822478e+003,9.937470e+001
1.824406e+003,9.941589e+001
1.826335e+003,9.947320e+001
1.828264e+003,9.957797e+001
1.830192e+003,9.963320e+001
1.832121e+003,9.971748e+001
1.834049e+003,9.981551e+001
1.835978e+003,9.989811e+001
1.837906e+003,9.996630e+001
1.839835e+003,1.000485e+002
1.841763e+003,1.001235e+002
1.843692e+003,1.001647e+002
1.845620e+003,1.001673e+002
1.847549e+003,1.002189e+002
1.849478e+003,1.002799e+002
1.851406e+003,1.003451e+002
1.853335e+003,1.003889e+002
1.855263e+003,1.004324e+002
1.857192e+003,1.004454e+002
1.859120e+003,1.004531e+002
1.861049e+003,1.004814e+002
1.862977e+003,1.005206e+002
1.864906e+003,1.005442e+002
1.866834e+003,1.005640e+002
1.868763e+003,1.005499e+002
1.870692e+003,1.005555e+002
1.872620e+003,1.005887e+002
1.874549e+003,1.006250e+002
1.876477e+003,1.006471e+002
1.878406e+003,1.006560e+002
1.880334e+003,1.006680e+002
1.882263e+003,1.007000e+002
1.884191e+003,1.007060e+002
1.886120e+003,1.007203e+002
1.888048e+003,1.007532e+002
1.889977e+003,1.007495e+002
1.891906e+003,1.007624e+002
1.893834e+003,1.007895e+002
1.895763e+003,1.007842e+002
1.897691e+003,1.008065e+002
1.899620e+003,1.008132e+002
1.901548e+003,1.008267e+002
1.903477e+003,1.008401e+002
1.905405e+003,1.008554e+002
1.907334e+003,1.008721e+002
1.909263e+003,1.008711e+002
1.911191e+003,1.008703e+002
1.913120e+003,1.008899e+002
1.915048e+003,1.009113e+002
1.916977e+003,1.009314e+002
1.918905e+003,1.009146e+002
1.920834e+003,1.009418e+002
1.922762e+003,1.009427e+002
1.924691e+003,1.009613e+002
1.926620e+003,1.009932e+002
1.928548e+003,1.010102e+002
1.930477e+003,1.010188e+002
1.932405e+003,1.010210e+002
1.934334e+003,1.010214e+002
1.936262e+003,1.010366e+002
1.938191e+003,1.010369e+002
1.940119e+003,1.010490e+002
1.942048e+003,1.010393e+002
1.943976e+003,1.009959e+002
1.945905e+003,1.009892e+002
1.947833e+003,1.010055e+002
1.949762e+003,1.010141e+002
1.951691e+003,1.010198e+002
1.953619e+003,1.010067e+002
1.955548e+003,1.009855e+002
1.957476e+003,1.009723e+002
1.959405e+003,1.009680e+002
1.961333e+003,1.009566e+002
1.963262e+003,1.009612e+002
1.965190e+003,1.009634e+002
1.967119e+003,1.009464e+002
1.969047e+003,1.009417e+002
1.970976e+003,1.009607e+002
1.972905e+003,1.009658e+002
1.974833e+003,1.009736e+002
1.976762e+003,1.009719e+002
1.978690e+003,1.009774e+002
1.980619e+003,1.009917e+002
1.982547e+003,1.010058e+002
1.984476e+003,1.010144e+002
1.986404e+003,1.010224e+002
1.988333e+003,1.010252e+002
1.990262e+003,1.010422e+002
1.992190e+003,1.010373e+002
1.994119e+003,1.010277e+002
1.996047e+003,1.010336e+002
1.997976e+003,1.010487e+002
1.999904e+003,1.010473e+002
2.001833e+003,1.010444e+002
2.003761e+003,1.010460e+002
2.005690e+003,1.010334e+002
2.007619e+003,1.010220e+002
2.009547e+003,1.010504e+002
2.011476e+003,1.010676e+002
2.013404e+003,1.010760e+002
2.015333e+003,1.010893e+002
2.017261e+003,1.010995e+002
2.019190e+003,1.011108e+002
2.021118e+003,1.011261e+002
2.023047e+003,1.011292e+002
2.024975e+003,1.011325e+002
2.026904e+003,1.011324e+002
2.028833e+003,1.011376e+002
2.030761e+003,1.011506e+002
2.032690e+003,1.011596e+002
2.034618e+003,1.011503e+002
2.036547e+003,1.011531e+002
2.038475e+003,1.011555e+002
2.040404e+003,1.011533e+002
2.042332e+003,1.011458e+002
2.044261e+003,1.011489e+002
2.046189e+003,1.011373e+002
2.048118e+003,1.011292e+002
2.050046e+003,1.011207e+002
2.051975e+003,1.011169e+002
2.053904e+003,1.011087e+002
2.055832e+003,1.011078e+002
2.057761e+003,1.011049e+002
2.059689e+003,1.010959e+002
2.061618e+003,1.010792e+002
2.063546e+003,1.010738e+002
2.065475e+003,1.010723e+002
2.067403e+003,1.010799e+002
2.069332e+003,1.010797e+002
2.071260e+003,1.010916e+002
2.073189e+003,1.011070e+002
2.075118e+003,1.011150e+002
2.077046e+003,1.011163e+002
2.078975e+003,1.011215e+002
2.080903e+003,1.011087e+002
2.082832e+003,1.011154e+002
2.084760e+003,1.011314e+002
2.086689e+003,1.011447e+002
2.088617e+003,1.011350e+002
2.090546e+003,1.011331e+002
2.092475e+003,1.011494e+002
2.094403e+003,1.011630e+002
2.096332e+003,1.011613e+002
2.098260e+003,1.011736e+002
2.100189e+003,1.011912e+002
2.102117e+003,1.012220e+002
2.104046e+003,1.012402e+002
2.105974e+003,1.012545e+002
2.107903e+003,1.012723e+002
2.109832e+003,1.012783e+002
2.111760e+003,1.012684e+002
2.113688e+003,1.012644e+002
2.115617e+003,1.012640e+002
2.117546e+003,1.012622e+002
2.119474e+003,1.012596e+002
2.121403e+003,1.012599e+002
2.123331e+003,1.012568e+002
2.125260e+003,1.012661e+002
2.127188e+003,1.012784e+002
2.129117e+003,1.013052e+002
2.131045e+003,1.013126e+002
2.132974e+003,1.013242e+002
2.134903e+003,1.013422e+002
2.136831e+003,1.013679e+002
2.138760e+003,1.014028e+002
2.140688e+003,1.014426e+002
2.142617e+003,1.014667e+002
2.144545e+003,1.014975e+002
2.146474e+003,1.015296e+002
2.148402e+003,1.015456e+002
2.150331e+003,1.015478e+002
2.152260e+003,1.015642e+002
2.154188e+003,1.015778e+002
2.156117e+003,1.015995e+002
2.158045e+003,1.016347e+002
2.159974e+003,1.016594e+002
2.161902e+003,1.016676e+002
2.163831e+003,1.016655e+002
2.165759e+003,1.016598e+002
2.167688e+003,1.016710e+002
2.169616e+003,1.016820e+002
2.171545e+003,1.016802e+002
2.173474e+003,1.016651e+002
2.175402e+003,1.016714e+002
2.177331e+003,1.016994e+002
2.179259e+003,1.017025e+002
2.181188e+003,1.016871e+002
2.183116e+003,1.016963e+002
2.185045e+003,1.016982e+002
2.186973e+003,1.016907e+002
2.188902e+003,1.016907e+002
2.190831e+003,1.016867e+002
2.192759e+003,1.016856e+002
2.194688e+003,1.016923e+002
2.196616e+003,1.016982e+002
2.198545e+003,1.017018e+002
2.200473e+003,1.016956e+002
2.202402e+003,1.016850e+002
2.204330e+003,1.016743e+002
2.206259e+003,1.016702e+002
2.208188e+003,1.016619e+002
2.210116e+003,1.016425e+002
2.212044e+003,1.016377e+002
2.213973e+003,1.016400e+002
2.215902e+003,1.016255e+002
2.217830e+003,1.016097e+002
2.219759e+003,1.015944e+002
2.221687e+003,1.015836e+002
2.223616e+003,1.015902e+002
2.225544e+003,1.015910e+002
2.227473e+003,1.015659e+002
2.229401e+003,1.015583e+002
2.231330e+003,1.015520e+002
2.233259e+003,1.015556e+002
2.235187e+003,1.015633e+002
2.237116e+003,1.015558e+002
2.239044e+003,1.015542e+002
2.240973e+003,1.015613e+002
2.242901e+003,1.015541e+002
2.244830e+003,1.015519e+002
2.246758e+003,1.015589e+002
2.248687e+003,1.015677e+002
2.250615e+003,1.015661e+002
2.252544e+003,1.015536e+002
2.254473e+003,1.015574e+002
2.256401e+003,1.015689e+002
2.258330e+003,1.015705e+002
2.260258e+003,1.015820e+002
2.262187e+003,1.015839e+002
2.264115e+003,1.015806e+002
2.266044e+003,1.015798e+002
2.267972e+003,1.015842e+002
2.269901e+003,1.015838e+002
2.271830e+003,1.015740e+002
2.273758e+003,1.015537e+002
2.275687e+003,1.015426e+002
2.277615e+003,1.015358e+002
2.279544e+003,1.015330e+002
2.281472e+003,1.015226e+002
2.283401e+003,1.015099e+002
2.285329e+003,1.014902e+002
2.287258e+003,1.014836e+002
2.289187e+003,1.014703e+002
2.291115e+003,1.014520e+002
2.293043e+003,1.014513e+002
2.294972e+003,1.014591e+002
2.296901e+003,1.014495e+002
2.298829e+003,1.014328e+002
2.300758e+003,1.014102e+002
2.302686e+003,1.014271e+002
2.304615e+003,1.014530e+002
2.306543e+003,1.014646e+002
2.308472e+003,1.014652e+002
2.310400e+003,1.014918e+002
2.312329e+003,1.015448e+002
2.314258e+003,1.016138e+002
2.316186e+003,1.016986e+002
2.318115e+003,1.017798e+002
2.320043e+003,1.018432e+002
2.321972e+003,1.019203e+002
2.323900e+003,1.019915e+002
2.325829e+003,1.020720e+002
2.327757e+003,1.021594e+002
2.329686e+003,1.023025e+002
2.331615e+003,1.024080e+002
2.333543e+003,1.024513e+002
2.335472e+003,1.025286e+002
2.337400e+003,1.026452e+002
2.339329e+003,1.027663e+002
2.341257e+003,1.028539e+002
2.343186e+003,1.028388e+002
2.345114e+003,1.026402e+002
2.347043e+003,1.022370e+002
2.348971e+003,1.021218e+002
2.350900e+003,1.024239e+002
2.352829e+003,1.030340e+002
2.354757e+003,1.037474e+002
2.356686e+003,1.044974e+002
2.358614e+003,1.050610e+002
2.360543e+003,1.052820e+002
2.362471e+003,1.052399e+002
2.364400e+003,1.049118e+002
2.366328e+003,1.043925e+002
2.368257e+003,1.038050e+002
2.370186e+003,1.032693e+002
2.372114e+003,1.028546e+002
2.374042e+003,1.024576e+002
2.375971e+003,1.021672e+002
2.377900e+003,1.019686e+002
2.379828e+003,1.018160e+002
2.381757e+003,1.017035e+002
2.383685e+003,1.016407e+002
2.385614e+003,1.016098e+002
2.387542e+003,1.016051e+002
2.389471e+003,1.016034e+002
2.391399e+003,1.016040e+002
2.393328e+003,1.016093e+002
2.395257e+003,1.016017e+002
2.397185e+003,1.015934e+002
2.399114e+003,1.015971e+002
2.401042e+003,1.015875e+002
2.402971e+003,1.015636e+002
2.404899e+003,1.015526e+002
2.406828e+003,1.015605e+002
2.408756e+003,1.015729e+002
2.410685e+003,1.015877e+002
2.412614e+003,1.015923e+002
2.414542e+003,1.016046e+002
2.416471e+003,1.016164e+002
2.418399e+003,1.016210e+002
2.420328e+003,1.016159e+002
2.422256e+003,1.016125e+002
2.424185e+003,1.016187e+002
2.426113e+003,1.016229e+002
2.428042e+003,1.016263e+002
2.429970e+003,1.016344e+002
2.431899e+003,1.016386e+002
2.433828e+003,1.016284e+002
2.435756e+003,1.016224e+002
2.437685e+003,1.016337e+002
2.439613e+003,1.016299e+002
2.441542e+003,1.016327e+002
2.443470e+003,1.016344e+002
2.445399e+003,1.016335e+002
2.447327e+003,1.016308e+002
2.449256e+003,1.016234e+002
2.451185e+003,1.016255e+002
2.453113e+003,1.016487e+002
2.455042e+003,1.016526e+002
2.456970e+003,1.016410e+002
2.458899e+003,1.016304e+002
2.460827e+003,1.016266e+002
2.462756e+003,1.016233e+002
2.464684e+003,1.016172e+002
2.466613e+003,1.016100e+002
2.468542e+003,1.016258e+002
2.470470e+003,1.016355e+002
2.472398e+003,1.016176e+002
2.474327e+003,1.016020e+002
2.476256e+003,1.016011e+002
2.478184e+003,1.016016e+002
2.480113e+003,1.015979e+002
2.482041e+003,1.015939e+002
2.483970e+003,1.015858e+002
2.485898e+003,1.015833e+002
2.487827e+003,1.015865e+002
2.489755e+003,1.015812e+002
2.491684e+003,1.015872e+002
2.493613e+003,1.015938e+002
2.495541e+003,1.015848e+002
2.497470e+003,1.015730e+002
2.499398e+003,1.015662e+002
2.501327e+003,1.015668e+002
2.503255e+003,1.015771e+002
2.505184e+003,1.015848e+002
2.507112e+003,1.015774e+002
2.509041e+003,1.015647e+002
2.510969e+003,1.015667e+002
2.512898e+003,1.015771e+002
2.514827e+003,1.015714e+002
2.516755e+003,1.015725e+002
2.518684e+003,1.015707e+002
2.520612e+003,1.015586e+002
2.522541e+003,1.015692e+002
2.524469e+003,1.015900e+002
2.526398e+003,1.015942e+002
2.528326e+003,1.015911e+002
2.530255e+003,1.016018e+002
2.532184e+003,1.015984e+002
2.534112e+003,1.015825e+002
2.536041e+003,1.015664e+002
2.537969e+003,1.015716e+002
2.539898e+003,1.015800e+002
2.541826e+003,1.015783e+002
2.543755e+003,1.015949e+002
2.545683e+003,1.016134e+002
2.547612e+003,1.016009e+002
2.549541e+003,1.015866e+002
2.551469e+003,1.015980e+002
2.553397e+003,1.016232e+002
2.555326e+003,1.016234e+002
2.557255e+003,1.016053e+002
2.559183e+003,1.015901e+002
2.561112e+003,1.015956e+002
2.563040e+003,1.015882e+002
2.564969e+003,1.015856e+002
2.566897e+003,1.015880e+002
2.568826e+003,1.015823e+002
2.570754e+003,1.015729e+002
2.572683e+003,1.015676e+002
2.574612e+003,1.015621e+002
2.576540e+003,1.015511e+002
2.578469e+003,1.015644e+002
2.580397e+003,1.015718e+002
2.582326e+003,1.015673e+002
2.584254e+003,1.015766e+002
2.586183e+003,1.015809e+002
2.588111e+003,1.015886e+002
2.590040e+003,1.016030e+002
2.591969e+003,1.015987e+002
2.593897e+003,1.015899e+002
2.595826e+003,1.015975e+002
2.597754e+003,1.016048e+002
2.599683e+003,1.016126e+002
2.601611e+003,1.016190e+002
2.603540e+003,1.016168e+002
2.605468e+003,1.016095e+002
2.607397e+003,1.016159e+002
2.609325e+003,1.016325e+002
2.611254e+003,1.016403e+002
2.613183e+003,1.016291e+002
2.615111e+003,1.016015e+002
2.617040e+003,1.016008e+002
2.618968e+003,1.016223e+002
2.620897e+003,1.016233e+002
2.622825e+003,1.016184e+002
2.624754e+003,1.015963e+002
2.626682e+003,1.015893e+002
2.628611e+003,1.015987e+002
2.630540e+003,1.015956e+002
2.632468e+003,1.015758e+002
2.634396e+003,1.015679e+002
2.636325e+003,1.015615e+002
2.638254e+003,1.015450e+002
2.640182e+003,1.015532e+002
2.642111e+003,1.015711e+002
2.644039e+003,1.015861e+002
2.645968e+003,1.015887e+002
2.647896e+003,1.015895e+002
2.649825e+003,1.015857e+002
2.651753e+003,1.015802e+002
2.653682e+003,1.015903e+002
2.655611e+003,1.015963e+002
2.657539e+003,1.015855e+002
2.659468e+003,1.015788e+002
2.661396e+003,1.015892e+002
2.663325e+003,1.015990e+002
2.665253e+003,1.016012e+002
2.667182e+003,1.016023e+002
2.669110e+003,1.016033e+002
2.671039e+003,1.015925e+002
2.672968e+003,1.015629e+002
2.674896e+003,1.015297e+002
2.676825e+003,1.014926e+002
2.678753e+003,1.014685e+002
2.680682e+003,1.014954e+002
2.682610e+003,1.015724e+002
2.684539e+003,1.016216e+002
2.686467e+003,1.016253e+002
2.688396e+003,1.016232e+002
2.690324e+003,1.016353e+002
2.692253e+003,1.016411e+002
2.694182e+003,1.016437e+002
2.696110e+003,1.016463e+002
2.698039e+003,1.016310e+002
2.699967e+003,1.016377e+002
2.701896e+003,1.016653e+002
2.703824e+003,1.016704e+002
2.705753e+003,1.016785e+002
2.707681e+003,1.016754e+002
2.709610e+003,1.016498e+002
2.711539e+003,1.016787e+002
2.713467e+003,1.017081e+002
2.715396e+003,1.016960e+002
2.717324e+003,1.016761e+002
2.719253e+003,1.016704e+002
2.721181e+003,1.016191e+002
2.723110e+003,1.015869e+002
2.725038e+003,1.015395e+002
2.726967e+003,1.015320e+002
2.728896e+003,1.016215e+002
2.730824e+003,1.016547e+002
2.732752e+003,1.016620e+002
2.734681e+003,1.016467e+002
2.736610e+003,1.016016e+002
2.738538e+003,1.016076e+002
2.740467e+003,1.016430e+002
2.742395e+003,1.016519e+002
2.744324e+003,1.016318e+002
2.746252e+003,1.015757e+002
2.748181e+003,1.015188e+002
2.750109e+003,1.015327e+002
2.752038e+003,1.016058e+002
2.753967e+003,1.016374e+002
2.755895e+003,1.016170e+002
2.757824e+003,1.016234e+002
2.759752e+003,1.016377e+002
2.761681e+003,1.016661e+002
2.763609e+003,1.016898e+002
2.765538e+003,1.016761e+002
2.767466e+003,1.016456e+002
2.769395e+003,1.016420e+002
2.771323e+003,1.016108e+002
2.773252e+003,1.015287e+002
2.775181e+003,1.015095e+002
2.777109e+003,1.015900e+002
2.779038e+003,1.016546e+002
2.780966e+003,1.016597e+002
2.782895e+003,1.016481e+002
2.784823e+003,1.016237e+002
2.786752e+003,1.015428e+002
2.788680e+003,1.014425e+002
2.790609e+003,1.014438e+002
2.792538e+003,1.015079e+002
2.794466e+003,1.015328e+002
2.796395e+003,1.014794e+002
2.798323e+003,1.014495e+002
2.800252e+003,1.015061e+002
2.802180e+003,1.015556e+002
2.804109e+003,1.015510e+002
2.806037e+003,1.015463e+002
2.807966e+003,1.015027e+002
2.809895e+003,1.014367e+002
2.811823e+003,1.014812e+002
2.813751e+003,1.015279e+002
2.815680e+003,1.015055e+002
2.817609e+003,1.014936e+002
2.819537e+003,1.014854e+002
2.821466e+003,1.014731e+002
2.823394e+003,1.014424e+002
2.825323e+003,1.014441e+002
2.827251e+003,1.014620e+002
2.829180e+003,1.014643e+002
2.831108e+003,1.014396e+002
2.833037e+003,1.013830e+002
2.834966e+003,1.013225e+002
2.836894e+003,1.012428e+002
2.838823e+003,1.011775e+002
2.840751e+003,1.012694e+002
2.842680e+003,1.013252e+002
2.844608e+003,1.012526e+002
2.846537e+003,1.010910e+002
2.848465e+003,1.009664e+002
2.850394e+003,1.009663e+002
2.852323e+003,1.009990e+002
2.854251e+003,1.010272e+002
2.856180e+003,1.010431e+002
2.858108e+003,1.010157e+002
2.860037e+003,1.009886e+002
2.861965e+003,1.010388e+002
2.863894e+003,1.010770e+002
2.865822e+003,1.010706e+002
2.867751e+003,1.010679e+002
2.869679e+003,1.010003e+002
2.871608e+003,1.008038e+002
2.873537e+003,1.006343e+002
2.875465e+003,1.006515e+002
2.877394e+003,1.007208e+002
2.879322e+003,1.007584e+002
2.881251e+003,1.007831e+002
2.883179e+003,1.008048e+002
2.885108e+003,1.008444e+002
2.887036e+003,1.008921e+002
2.888965e+003,1.009378e+002
2.890894e+003,1.009441e+002
2.892822e+003,1.008937e+002
2.894750e+003,1.007853e+002
2.896679e+003,1.007692e+002
2.898608e+003,1.008736e+002
2.900536e+003,1.008979e+002
2.902465e+003,1.008253e+002
2.904393e+003,1.007685e+002
2.906322e+003,1.007815e+002
2.908250e+003,1.007052e+002
2.910179e+003,1.005271e+002
2.912107e+003,1.003257e+002
2.914036e+003,1.001811e+002
2.915965e+003,1.001093e+002
2.917893e+003,1.000626e+002
2.919822e+003,1.001113e+002
2.921750e+003,1.001682e+002
2.923679e+003,1.001451e+002
2.925607e+003,1.000847e+002
2.927536e+003,9.992971e+001
2.929464e+003,9.975418e+001
2.931393e+003,9.976579e+001
2.933322e+003,9.979951e+001
2.935250e+003,9.971830e+001
2.937179e+003,9.957069e+001
2.939107e+003,9.935996e+001
2.941036e+003,9.905339e+001
2.942964e+003,9.862988e+001
2.944893e+003,9.834151e+001
2.946821e+003,9.827703e+001
2.948750e+003,9.840117e+001
2.950678e+003,9.850864e+001
2.952607e+003,9.857645e+001
2.954536e+003,9.880136e+001
2.956464e+003,9.903214e+001
2.958393e+003,9.916908e+001
2.960321e+003,9.923857e+001
2.962250e+003,9.931014e+001
2.964178e+003,9.948403e+001
2.966107e+003,9.967009e+001
2.968035e+003,9.979876e+001
2.969964e+003,9.986464e+001
2.971893e+003,9.988672e+001
2.973821e+003,9.988020e+001
2.975750e+003,9.991330e+001
2.977678e+003,9.991014e+001
2.979607e+003,9.983117e+001
2.981535e+003,9.984024e+001
2.983464e+003,9.990167e+001
2.985392e+003,9.983247e+001
2.987321e+003,9.963260e+001
2.989250e+003,9.932925e+001
2.991178e+003,9.889173e+001
2.993106e+003,9.853166e+001
2.995035e+003,9.832001e+001
2.996964e+003,9.812310e+001
2.998892e+003,9.810701e+001
3.000821e+003,9.827944e+001
3.002749e+003,9.847852e+001
3.004678e+003,9.873029e+001
3.006606e+003,9.900216e+001
3.008535e+003,9.918861e+001
3.010463e+003,9.927165e+001
3.012392e+003,9.940827e+001
3.014321e+003,9.963612e+001
3.016249e+003,9.988045e+001
3.018178e+003,1.001321e+002
3.020106e+003,1.003764e+002
3.022035e+003,1.005742e+002
3.023963e+003,1.006792e+002
3.025892e+003,1.008309e+002
3.027820e+003,1.009838e+002
3.029749e+003,1.010203e+002
3.031677e+003,1.010102e+002
3.033606e+003,1.009555e+002
3.035535e+003,1.010288e+002
3.037463e+003,1.011904e+002
3.039392e+003,1.011642e+002
3.041320e+003,1.010682e+002
3.043249e+003,1.010764e+002
3.045177e+003,1.011498e+002
3.047106e+003,1.012628e+002
3.049034e+003,1.012617e+002
3.050963e+003,1.012047e+002
3.052892e+003,1.012748e+002
3.054820e+003,1.013102e+002
3.056749e+003,1.012993e+002
3.058677e+003,1.013731e+002
3.060606e+003,1.014605e+002
3.062534e+003,1.014164e+002
3.064463e+003,1.013269e+002
3.066391e+003,1.012192e+002
3.068320e+003,1.012338e+002
3.070249e+003,1.013297e+002
3.072177e+003,1.013866e+002
3.074105e+003,1.013895e+002
3.076034e+003,1.012698e+002
3.077963e+003,1.011535e+002
3.079891e+003,1.011422e+002
3.081820e+003,1.011613e+002
3.083748e+003,1.011669e+002
3.085677e+003,1.012306e+002
3.087605e+003,1.013055e+002
3.089534e+003,1.013105e+002
3.091462e+003,1.013509e+002
3.093391e+003,1.014520e+002
3.095320e+003,1.014804e+002
3.097248e+003,1.014376e+002
3.099177e+003,1.013722e+002
3.101105e+003,1.014124e+002
3.103034e+003,1.014868e+002
3.104962e+003,1.014602e+002
3.106891e+003,1.013700e+002
3.108819e+003,1.013208e+002
3.110748e+003,1.013888e+002
3.112677e+003,1.013959e+002
3.114605e+003,1.012971e+002
3.116534e+003,1.012239e+002
3.118462e+003,1.012110e+002
3.120391e+003,1.012427e+002
3.122319e+003,1.013704e+002
3.124248e+003,1.015059e+002
3.126176e+003,1.015502e+002
3.128105e+003,1.015066e+002
3.130033e+003,1.014910e+002
3.131962e+003,1.015559e+002
3.133891e+003,1.015752e+002
3.135819e+003,1.015233e+002
3.137748e+003,1.014117e+002
3.139676e+003,1.013889e+002
3.141605e+003,1.015074e+002
3.143533e+003,1.015939e+002
3.145462e+003,1.016242e+002
3.147390e+003,1.016079e+002
3.149319e+003,1.015294e+002
3.151248e+003,1.013923e+002
3.153176e+003,1.013742e+002
3.155104e+003,1.014899e+002
3.157033e+003,1.015951e+002
3.158962e+003,1.016468e+002
3.160890e+003,1.016480e+002
3.162819e+003,1.016627e+002
3.164747e+003,1.016737e+002
3.166676e+003,1.016690e+002
3.168604e+003,1.016900e+002
3.170533e+003,1.016927e+002
3.172461e+003,1.016689e+002
3.174390e+003,1.016614e+002
3.176319e+003,1.016742e+002
3.178247e+003,1.016806e+002
3.180176e+003,1.016762e+002
3.182104e+003,1.016566e+002
3.184033e+003,1.016800e+002
3.185961e+003,1.017116e+002
3.187890e+003,1.016839e+002
3.189818e+003,1.016627e+002
3.191747e+003,1.016548e+002
3.193676e+003,1.016666e+002
3.195604e+003,1.016832e+002
3.197532e+003,1.016739e+002
3.199461e+003,1.016766e+002
3.201390e+003,1.016674e+002
3.203318e+003,1.016591e+002
3.205247e+003,1.016489e+002
3.207175e+003,1.016596e+002
3.209104e+003,1.017155e+002
3.211032e+003,1.017328e+002
3.212961e+003,1.016961e+002
3.214889e+003,1.016802e+002
3.216818e+003,1.016912e+002
3.218747e+003,1.016845e+002
3.220675e+003,1.017093e+002
3.222604e+003,1.017242e+002
3.224532e+003,1.017208e+002
3.226461e+003,1.017202e+002
3.228389e+003,1.016958e+002
3.230318e+003,1.016017e+002
3.232246e+003,1.014379e+002
3.234175e+003,1.014118e+002
3.236104e+003,1.015648e+002
3.238032e+003,1.016667e+002
3.239961e+003,1.016933e+002
3.241889e+003,1.016836e+002
3.243818e+003,1.016261e+002
3.245746e+003,1.014907e+002
3.247675e+003,1.014705e+002
3.249603e+003,1.016024e+002
3.251532e+003,1.016706e+002
3.253460e+003,1.016112e+002
3.255389e+003,1.015231e+002
3.257318e+003,1.016023e+002
3.259246e+003,1.017264e+002
3.261175e+003,1.017589e+002
3.263103e+003,1.017371e+002
3.265032e+003,1.017108e+002
3.266960e+003,1.016636e+002
3.268889e+003,1.014667e+002
3.270817e+003,1.013150e+002
3.272746e+003,1.014054e+002
3.274675e+003,1.015025e+002
3.276603e+003,1.015977e+002
3.278531e+003,1.016890e+002
3.280460e+003,1.017122e+002
3.282389e+003,1.017186e+002
3.284317e+003,1.017032e+002
3.286246e+003,1.016864e+002
3.288174e+003,1.016585e+002
3.290103e+003,1.015293e+002
3.292031e+003,1.013787e+002
3.293960e+003,1.013280e+002
3.295888e+003,1.013728e+002
3.297817e+003,1.015153e+002
3.299746e+003,1.016093e+002
3.301674e+003,1.015791e+002
3.303603e+003,1.014095e+002
3.305531e+003,1.012575e+002
3.307460e+003,1.012685e+002
3.309388e+003,1.014185e+002
3.311317e+003,1.016335e+002
3.313245e+003,1.017460e+002
3.315174e+003,1.017926e+002
3.317103e+003,1.018359e+002
3.319031e+003,1.018337e+002
3.320960e+003,1.018119e+002
3.322888e+003,1.017265e+002
3.324817e+003,1.015951e+002
3.326745e+003,1.016397e+002
3.328674e+003,1.017970e+002
3.330602e+003,1.018579e+002
3.332531e+003,1.018554e+002
3.334459e+003,1.017933e+002
3.336388e+003,1.016290e+002
3.338317e+003,1.014911e+002
3.340245e+003,1.015674e+002
3.342174e+003,1.016094e+002
3.344102e+003,1.016704e+002
3.346031e+003,1.017821e+002
3.347959e+003,1.017230e+002
3.349888e+003,1.015643e+002
3.351816e+003,1.016212e+002
3.353745e+003,1.018080e+002
3.355674e+003,1.018712e+002
3.357602e+003,1.018195e+002
3.359531e+003,1.017062e+002
3.361459e+003,1.016991e+002
3.363388e+003,1.017346e+002
3.365316e+003,1.015968e+002
3.367245e+003,1.014235e+002
3.369173e+003,1.014096e+002
3.371102e+003,1.015769e+002
3.373031e+003,1.017859e+002
3.374959e+003,1.018144e+002
3.376887e+003,1.017769e+002
3.378816e+003,1.017717e+002
3.380745e+003,1.017842e+002
3.382673e+003,1.018765e+002
3.384602e+003,1.019148e+002
3.386530e+003,1.018952e+002
3.388459e+003,1.017874e+002
3.390387e+003,1.015553e+002
3.392316e+003,1.014751e+002
3.394244e+003,1.016140e+002
3.396173e+003,1.017028e+002
3.398102e+003,1.015928e+002
3.400030e+003,1.014070e+002
3.401959e+003,1.014580e+002
3.403887e+003,1.016848e+002
3.405816e+003,1.017818e+002
3.407744e+003,1.017154e+002
3.409673e+003,1.016937e+002
3.411601e+003,1.017057e+002
3.413530e+003,1.017348e+002
3.415458e+003,1.018816e+002
3.417387e+003,1.019482e+002
3.419316e+003,1.018976e+002
3.421244e+003,1.018736e+002
3.423173e+003,1.019243e+002
3.425101e+003,1.019183e+002
3.427030e+003,1.018210e+002
3.428958e+003,1.016649e+002
3.430887e+003,1.016437e+002
3.432815e+003,1.016370e+002
3.434744e+003,1.015183e+002
3.436673e+003,1.015255e+002
3.438601e+003,1.017290e+002
3.440530e+003,1.019148e+002
3.442458e+003,1.019484e+002
3.444387e+003,1.019455e+002
3.446315e+003,1.019300e+002
3.448244e+003,1.019251e+002
3.450172e+003,1.019933e+002
3.452101e+003,1.020358e+002
3.454030e+003,1.020387e+002
3.455958e+003,1.020175e+002
3.457886e+003,1.018990e+002
3.459815e+003,1.017635e+002
3.461744e+003,1.018305e+002
3.463672e+003,1.018092e+002
3.465601e+003,1.015982e+002
3.467529e+003,1.013955e+002
3.469458e+003,1.014357e+002
3.471386e+003,1.017266e+002
3.473315e+003,1.019193e+002
3.475243e+003,1.019187e+002
3.477172e+003,1.018098e+002
3.479101e+003,1.016216e+002
3.481029e+003,1.017017e+002
3.482958e+003,1.018795e+002
3.484886e+003,1.017964e+002
3.486815e+003,1.016593e+002
3.488743e+003,1.017221e+002
3.490672e+003,1.017943e+002
3.492600e+003,1.017167e+002
3.494529e+003,1.015838e+002
3.496458e+003,1.014474e+002
3.498386e+003,1.014411e+002
3.500315e+003,1.015048e+002
3.502243e+003,1.013975e+002
3.504172e+003,1.015374e+002
3.506100e+003,1.018025e+002
3.508029e+003,1.019640e+002
3.509957e+003,1.019678e+002
3.511886e+003,1.017538e+002
3.513814e+003,1.016161e+002
3.515743e+003,1.017824e+002
3.517672e+003,1.019277e+002
3.519600e+003,1.019742e+002
3.521529e+003,1.018643e+002
3.523457e+003,1.016581e+002
3.525386e+003,1.017973e+002
3.527314e+003,1.019996e+002
3.529243e+003,1.020213e+002
3.531171e+003,1.020084e+002
3.533100e+003,1.019381e+002
3.535029e+003,1.017599e+002
3.536957e+003,1.016771e+002
3.538885e+003,1.018388e+002
3.540814e+003,1.018061e+002
3.542743e+003,1.016165e+002
3.544671e+003,1.015161e+002
3.546600e+003,1.016439e+002
3.548528e+003,1.018342e+002
3.550457e+003,1.018777e+002
3.552385e+003,1.019041e+002
3.554314e+003,1.019756e+002
3.556242e+003,1.019952e+002
3.558171e+003,1.019611e+002
3.560100e+003,1.018541e+002
3.562028e+003,1.018527e+002
3.563957e+003,1.020324e+002
3.565885e+003,1.021836e+002
3.567814e+003,1.019815e+002
3.569742e+003,1.017719e+002
3.571671e+003,1.019039e+002
3.573599e+003,1.020047e+002
3.575528e+003,1.019724e+002
3.577457e+003,1.019492e+002
3.579385e+003,1.019133e+002
3.581314e+003,1.018251e+002
3.583242e+003,1.017802e+002
3.585171e+003,1.018109e+002
3.587099e+003,1.019581e+002
3.589028e+003,1.019472e+002
3.590956e+003,1.018642e+002
3.592885e+003,1.019260e+002
3.594813e+003,1.019979e+002
3.596742e+003,1.019347e+002
3.598671e+003,1.018198e+002
3.600599e+003,1.018168e+002
3.602528e+003,1.018228e+002
3.604456e+003,1.018560e+002
3.606385e+003,1.019843e+002
3.608313e+003,1.020655e+002
3.610242e+003,1.020432e+002
3.612170e+003,1.020654e+002
3.614099e+003,1.019490e+002
3.616028e+003,1.019540e+002
3.617956e+003,1.020796e+002
3.619885e+003,1.019020e+002
3.621813e+003,1.017495e+002
3.623742e+003,1.018475e+002
3.625670e+003,1.020167e+002
3.627599e+003,1.023207e+002
3.629527e+003,1.022217e+002
3.631456e+003,1.019656e+002
3.633385e+003,1.019588e+002
3.635313e+003,1.019054e+002
3.637241e+003,1.019213e+002
3.639170e+003,1.019101e+002
3.641099e+003,1.018913e+002
3.643027e+003,1.018732e+002
3.644956e+003,1.019770e+002
3.646884e+003,1.021638e+002
3.648813e+003,1.020308e+002
3.650741e+003,1.016639e+002
3.652670e+003,1.016914e+002
3.654598e+003,1.019053e+002
3.656527e+003,1.018007e+002
3.658456e+003,1.015432e+002
3.660384e+003,1.015322e+002
3.662313e+003,1.016660e+002
3.664241e+003,1.017903e+002
3.666170e+003,1.018981e+002
3.668098e+003,1.020437e+002
3.670027e+003,1.020303e+002
3.671955e+003,1.019120e+002
3.673884e+003,1.020800e+002
3.675813e+003,1.020435e+002
3.677741e+003,1.018216e+002
3.679670e+003,1.017998e+002
3.681598e+003,1.017993e+002
3.683527e+003,1.018017e+002
3.685455e+003,1.018306e+002
3.687384e+003,1.018190e+002
3.689312e+003,1.016812e+002
3.691241e+003,1.017468e+002
3.693169e+003,1.017691e+002
3.695098e+003,1.017477e+002
3.697027e+003,1.017774e+002
3.698955e+003,1.018901e+002
3.700884e+003,1.019871e+002
3.702812e+003,1.018933e+002
3.704741e+003,1.018319e+002
3.706669e+003,1.019277e+002
3.708598e+003,1.020721e+002
3.710526e+003,1.021491e+002
3.712455e+003,1.019960e+002
3.714384e+003,1.018328e+002
3.716312e+003,1.018604e+002
3.718240e+003,1.019189e+002
3.720169e+003,1.019523e+002
3.722098e+003,1.019541e+002
3.724026e+003,1.019576e+002
3.725955e+003,1.019752e+002
3.727883e+003,1.019114e+002
3.729812e+003,1.019843e+002
3.731740e+003,1.020199e+002
3.733669e+003,1.020143e+002
3.735597e+003,1.019256e+002
3.737526e+003,1.016228e+002
3.739455e+003,1.016620e+002
3.741383e+003,1.018796e+002
3.743312e+003,1.022695e+002
3.745240e+003,1.022395e+002
3.747169e+003,1.020805e+002
3.749097e+003,1.022758e+002
3.751026e+003,1.021949e+002
3.752954e+003,1.019211e+002
3.754883e+003,1.018548e+002
3.756812e+003,1.019046e+002
3.758740e+003,1.019264e+002
3.760669e+003,1.018817e+002
3.762597e+003,1.018726e+002
3.764526e+003,1.019557e+002
3.766454e+003,1.019101e+002
3.768383e+003,1.019695e+002
3.770311e+003,1.019015e+002
3.772240e+003,1.018083e+002
3.774168e+003,1.018552e+002
3.776097e+003,1.018842e+002
3.778026e+003,1.018462e+002
3.779954e+003,1.017615e+002
3.781883e+003,1.018537e+002
3.783811e+003,1.019416e+002
3.785740e+003,1.018669e+002
3.787668e+003,1.018330e+002
3.789597e+003,1.018307e+002
3.791525e+003,1.018566e+002
3.793454e+003,1.019087e+002
3.795383e+003,1.019862e+002
3.797311e+003,1.019016e+002
3.799240e+003,1.019691e+002
3.801168e+003,1.021024e+002
3.803097e+003,1.018963e+002
3.805025e+003,1.019476e+002
3.806954e+003,1.019265e+002
3.808882e+003,1.017627e+002
3.810811e+003,1.018314e+002
3.812740e+003,1.019475e+002
3.814668e+003,1.020426e+002
3.816596e+003,1.018619e+002
3.818525e+003,1.018315e+002
3.820454e+003,1.019419e+002
3.822382e+003,1.017540e+002
3.824311e+003,1.017633e+002
3.826239e+003,1.018203e+002
3.828168e+003,1.017930e+002
3.830096e+003,1.018744e+002
3.832025e+003,1.018606e+002
3.833953e+003,1.018011e+002
3.835882e+003,1.017780e+002
3.837811e+003,1.018740e+002
3.839739e+003,1.017994e+002
3.841668e+003,1.017309e+002
3.843596e+003,1.016701e+002
3.845525e+003,1.015719e+002
3.847453e+003,1.016793e+002
3.849382e+003,1.018399e+002
3.851310e+003,1.020752e+002
3.853239e+003,1.022686e+002
3.855167e+003,1.018262e+002
3.857096e+003,1.016610e+002
3.859025e+003,1.017337e+002
3.860953e+003,1.018427e+002
3.862882e+003,1.018621e+002
3.864810e+003,1.017741e+002
3.866739e+003,1.017196e+002
3.868667e+003,1.019151e+002
3.870596e+003,1.018238e+002
3.872524e+003,1.017275e+002
3.874453e+003,1.016808e+002
3.876382e+003,1.016635e+002
3.878310e+003,1.018425e+002
3.880239e+003,1.018552e+002
3.882167e+003,1.016619e+002
3.884096e+003,1.016658e+002
3.886024e+003,1.015850e+002
3.887953e+003,1.015979e+002
3.889881e+003,1.017555e+002
3.891810e+003,1.016698e+002
3.893739e+003,1.015952e+002
3.895667e+003,1.017157e+002
3.897595e+003,1.018243e+002
3.899524e+003,1.018425e+002
3.901453e+003,1.018374e+002
3.903381e+003,1.018076e+002
3.905310e+003,1.016168e+002
3.907238e+003,1.015518e+002
3.909167e+003,1.015870e+002
3.911095e+003,1.016167e+002
3.913024e+003,1.016654e+002
3.914952e+003,1.017353e+002
3.916881e+003,1.017028e+002
3.918810e+003,1.016451e+002
3.920738e+003,1.016584e+002
3.922667e+003,1.017027e+002
3.924595e+003,1.016636e+002
3.926524e+003,1.015984e+002
3.928452e+003,1.016654e+002
3.930381e+003,1.016831e+002
3.932309e+003,1.016073e+002
3.934238e+003,1.015248e+002
3.936167e+003,1.015704e+002
3.938095e+003,1.016249e+002
3.940024e+003,1.016537e+002
3.941952e+003,1.016541e+002
3.943881e+003,1.015967e+002
3.945809e+003,1.016436e+002
3.947738e+003,1.016946e+002
3.949666e+003,1.016327e+002
3.951595e+003,1.015849e+002
3.953523e+003,1.015979e+002
3.955452e+003,1.016210e+002
3.957380e+003,1.015967e+002
3.959309e+003,1.015749e+002
3.961238e+003,1.015756e+002
3.963166e+003,1.015759e+002
3.965095e+003,1.015848e+002
3.967023e+003,1.015970e+002
3.968952e+003,1.015855e+002
3.970880e+003,1.015676e+002
3.972809e+003,1.015783e+002
3.974737e+003,1.015470e+002
3.976666e+003,1.015009e+002
3.978594e+003,1.015403e+002
3.980523e+003,1.015704e+002
3.982452e+003,1.015218e+002
3.984380e+003,1.014850e+002
3.986309e+003,1.014995e+002
3.988237e+003,1.015182e+002
3.990166e+003,1.015008e+002
3.992094e+003,1.014977e+002
3.994023e+003,1.015183e+002
3.995951e+003,1.015085e+002
3.997880e+003,1.015039e+002
3.999809e+003,1.015094e+002
4.001737e+003,0.000000e+000
