3.992094e+002,0.000000e+000
4.011380e+002,0.000000e+000
4.030665e+002,0.000000e+000
4.049951e+002,0.000000e+000
4.069236e+002,0.000000e+000
4.088522e+002,0.000000e+000
4.107807e+002,0.000000e+000
4.127093e+002,0.000000e+000
4.146378e+002,0.000000e+000
4.165664e+002,0.000000e+000
4.184949e+002,0.000000e+000
4.204235e+002,0.000000e+000
4.223520e+002,0.000000e+000
4.242806e+002,0.000000e+000
4.262091e+002,0.000000e+000
4.281377e+002,0.000000e+000
4.300662e+002,0.000000e+000
4.319948e+002,0.000000e+000
4.339233e+002,0.000000e+000
4.358519e+002,0.000000e+000
4.377804e+002,0.000000e+000
4.397090e+002,0.000000e+000
4.416375e+002,0.000000e+000
4.435660e+002,0.000000e+000
4.454946e+002,0.000000e+000
4.474232e+002,0.000000e+000
4.493517e+002,0.000000e+000
4.512802e+002,0.000000e+000
4.532088e+002,0.000000e+000
4.551373e+002,0.000000e+000
4.570659e+002,0.000000e+000
4.589944e+002,0.000000e+000
4.609230e+002,0.000000e+000
4.628515e+002,0.000000e+000
4.647801e+002,0.000000e+000
4.667086e+002,0.000000e+000
4.686372e+002,0.000000e+000
4.705657e+002,0.000000e+000
4.724943e+002,0.000000e+000
4.744228e+002,0.000000e+000
4.763514e+002,0.000000e+000
4.782799e+002,0.000000e+000
4.802085e+002,0.000000e+000
4.821370e+002,0.000000e+000
4.840656e+002,0.000000e+000
4.859941e+002,0.000000e+000
4.879226e+002,0.000000e+000
4.898512e+002,0.000000e+000
4.917798e+002,0.000000e+000
4.937083e+002,0.000000e+000
4.956368e+002,0.000000e+000
4.975654e+002,0.000000e+000
4.994939e+002,0.000000e+000
5.014225e+002,0.000000e+000
5.033510e+002,0.000000e+000
5.052796e+002,0.000000e+000
5.072081e+002,0.000000e+000
5.091367e+002,0.000000e+000
5.110652e+002,0.000000e+000
5.129938e+002,0.000000e+000
5.149223e+002,0.000000e+000
5.168509e+002,0.000000e+000
5.187794e+002,0.000000e+000
5.207079e+002,0.000000e+000
5.226365e+002,0.000000e+000
5.245651e+002,0.000000e+000
5.264936e+002,0.000000e+000
5.284221e+002,0.000000e+000
5.303507e+002,0.000000e+000
5.322792e+002,0.000000e+000
5.342078e+002,0.000000e+000
5.361364e+002,0.000000e+000
5.380649e+002,0.000000e+000
5.399934e+002,0.000000e+000
5.419220e+002,0.000000e+000
5.438505e+002,0.000000e+000
5.457791e+002,0.000000e+000
5.477076e+002,0.000000e+000
5.496362e+002,0.000000e+000
5.515647e+002,0.000000e+000
5.534933e+002,0.000000e+000
5.554218e+002,0.000000e+000
5.573503e+002,0.000000e+000
5.592789e+002,0.000000e+000
5.612075e+002,0.000000e+000
5.631360e+002,0.000000e+000
5.650646e+002,0.000000e+000
5.669931e+002,0.000000e+000
5.689216e+002,0.000000e+000
5.708502e+002,0.000000e+000
5.727787e+002,0.000000e+000
5.747073e+002,0.000000e+000
5.766359e+002,0.000000e+000
5.785644e+002,0.000000e+000
5.804929e+002,0.000000e+000
5.824215e+002,0.000000e+000
5.843500e+002,0.000000e+000
5.862786e+002,0.000000e+000
5.882072e+002,0.000000e+000
5.901357e+002,0.000000e+000
5.920642e+002,0.000000e+000
5.939928e+002,0.000000e+000
5.959213e+002,0.000000e+000
5.978499e+002,0.000000e+000
5.997784e+002,0.000000e+000
6.017070e+002,0.000000e+000
6.036355e+002,0.000000e+000
6.055641e+002,0.000000e+000
6.074926e+002,0.000000e+000
6.094211e+002,0.000000e+000
6.113497e+002,0.000000e+000
6.132783e+002,0.000000e+000
6.152068e+002,0.000000e+000
6.171354e+002,0.000000e+000
6.190639e+002,0.000000e+000
6.209924e+002,0.000000e+000
6.229210e+002,0.000000e+000
6.248495e+002,0.000000e+000
6.267781e+002,0.000000e+000
6.287067e+002,0.000000e+000
6.306352e+002,0.000000e+000
6.325637e+002,0.000000e+000
6.344923e+002,0.000000e+000
6.364208e+002,0.000000e+000
6.383494e+002,0.000000e+000
6.402780e+002,0.000000e+000
6.422065e+002,0.000000e+000
6.441350e+002,0.000000e+000
6.460636e+002,0.000000e+000
6.479921e+002,0.000000e+000
6.499207e+002,0.000000e+000
6.518492e+002,0.000000e+000
6.537778e+002,0.000000e+000
6.557063e+002,0.000000e+000
6.576349e+002,0.000000e+000
6.595634e+002,0.000000e+000
6.614919e+002,0.000000e+000
6.634205e+002,0.000000e+000
6.653491e+002,0.000000e+000
6.672776e+002,0.000000e+000
6.692062e+002,0.000000e+000
6.711347e+002,0.000000e+000
6.730632e+002,0.000000e+000
6.749918e+002,8.997181e+001
6.769203e+002,8.973622e+001
6.788489e+002,8.979925e+001
6.807775e+002,8.983835e+001
6.827060e+002,8.981970e+001
6.846345e+002,8.965470e+001
6.865631e+002,8.949632e+001
6.884916e+002,8.953720e+001
6.904202e+002,8.946819e+001
6.923488e+002,8.928806e+001
6.942773e+002,8.916557e+001
6.962058e+002,8.913464e+001
6.981344e+002,8.903745e+001
7.000629e+002,8.889271e+001
7.019915e+002,8.882001e+001
7.039200e+002,8.874255e+001
7.058486e+002,8.866636e+001
7.077771e+002,8.868241e+001
7.097057e+002,8.877000e+001
7.116342e+002,8.888935e+001
7.135627e+002,8.903829e+001
7.154913e+002,8.922872e+001
7.174199e+002,8.956043e+001
7.193484e+002,9.001011e+001
7.212770e+002,9.063643e+001
7.232055e+002,9.135883e+001
7.251340e+002,9.190155e+001
7.270626e+002,9.214870e+001
7.289911e+002,9.209558e+001
7.309197e+002,9.165199e+001
7.328483e+002,9.095391e+001
7.347768e+002,9.005668e+001
7.367053e+002,8.905746e+001
7.386339e+002,8.825475e+001
7.405624e+002,8.770125e+001
7.424910e+002,8.724159e+001
7.444196e+002,8.681448e+001
7.463481e+002,8.646931e+001
7.482766e+002,8.611398e+001
7.502052e+002,8.570969e+001
7.521337e+002,8.530354e+001
7.540623e+002,8.498952e+001
7.559908e+002,8.494891e+001
7.579194e+002,8.534696e+001
7.598479e+002,8.600037e+001
7.617765e+002,8.683945e+001
7.637050e+002,8.776588e+001
7.656335e+002,8.865543e+001
7.675621e+002,8.943246e+001
7.694907e+002,9.012568e+001
7.714192e+002,9.075503e+001
7.733478e+002,9.131310e+001
7.752763e+002,9.178566e+001
7.772048e+002,9.222346e+001
7.791334e+002,9.262288e+001
7.810620e+002,9.299821e+001
7.829905e+002,9.338395e+001
7.849191e+002,9.373282e+001
7.868476e+002,9.406319e+001
7.887761e+002,9.440993e+001
7.907047e+002,9.474229e+001
7.926332e+002,9.497503e+001
7.945618e+002,9.508673e+001
7.964904e+002,9.514979e+001
7.984189e+002,9.524757e+001
8.003474e+002,9.532254e+001
8.022760e+002,9.535104e+001
8.042045e+002,9.534824e+001
8.061331e+002,9.534032e+001
8.080616e+002,9.534309e+001
8.099902e+002,9.536739e+001
8.119187e+002,9.532586e+001
8.138473e+002,9.526134e+001
8.157758e+002,9.524950e+001
8.177043e+002,9.526934e+001
8.196329e+002,9.524772e+001
8.215615e+002,9.523326e+001
8.234900e+002,9.518678e+001
8.254186e+002,9.515375e+001
8.273471e+002,9.511118e+001
8.292756e+002,9.504921e+001
8.312042e+002,9.498673e+001
8.331328e+002,9.489779e+001
8.350613e+002,9.475647e+001
8.369899e+002,9.455466e+001
8.389184e+002,9.425347e+001
8.408469e+002,9.387769e+001
8.427755e+002,9.343103e+001
8.447040e+002,9.296583e+001
8.466326e+002,9.256181e+001
8.485612e+002,9.228810e+001
8.504896e+002,9.212108e+001
8.524182e+002,9.191234e+001
8.543468e+002,9.143246e+001
8.562753e+002,9.057924e+001
8.582039e+002,8.946438e+001
8.601324e+002,8.832766e+001
8.620609e+002,8.739272e+001
8.639895e+002,8.669951e+001
8.659181e+002,8.622087e+001
8.678466e+002,8.598011e+001
8.697751e+002,8.598067e+001
8.717037e+002,8.626530e+001
8.736322e+002,8.690573e+001
8.755608e+002,8.788758e+001
8.774894e+002,8.911875e+001
8.794178e+002,9.041103e+001
8.813464e+002,9.155074e+001
8.832750e+002,9.244408e+001
8.852035e+002,9.298606e+001
8.871321e+002,9.313505e+001
8.890607e+002,9.303876e+001
8.909891e+002,9.288550e+001
8.929177e+002,9.275836e+001
8.948463e+002,9.268893e+001
8.967748e+002,9.267628e+001
8.987034e+002,9.274780e+001
9.006320e+002,9.282705e+001
9.025604e+002,9.287932e+001
9.044890e+002,9.290822e+001
9.064176e+002,9.291784e+001
9.083461e+002,9.291749e+001
9.102747e+002,9.291879e+001
9.122032e+002,9.291618e+001
9.141317e+002,9.292357e+001
9.160603e+002,9.294321e+001
9.179889e+002,9.296432e+001
9.199174e+002,9.298763e+001
9.218459e+002,9.304717e+001
9.237745e+002,9.309953e+001
9.257030e+002,9.315698e+001
9.276316e+002,9.322273e+001
9.295602e+002,9.326370e+001
9.314886e+002,9.328455e+001
9.334172e+002,9.330282e+001
9.353458e+002,9.326971e+001
9.372743e+002,9.324194e+001
9.392029e+002,9.319579e+001
9.411315e+002,9.309705e+001
9.430599e+002,9.295876e+001
9.449885e+002,9.279607e+001
9.469171e+002,9.259594e+001
9.488456e+002,9.233277e+001
9.507742e+002,9.203040e+001
9.527028e+002,9.174751e+001
9.546312e+002,9.153888e+001
9.565598e+002,9.147025e+001
9.584884e+002,9.166969e+001
9.604169e+002,9.214806e+001
9.623455e+002,9.270876e+001
9.642740e+002,9.318053e+001
9.662025e+002,9.347507e+001
9.681311e+002,9.359077e+001
9.700597e+002,9.357991e+001
9.719882e+002,9.350840e+001
9.739167e+002,9.341342e+001
9.758453e+002,9.332083e+001
9.777738e+002,9.320562e+001
9.797024e+002,9.307587e+001
9.816310e+002,9.292895e+001
9.835594e+002,9.278312e+001
9.854880e+002,9.261989e+001
9.874166e+002,9.244303e+001
9.893451e+002,9.222549e+001
9.912737e+002,9.200368e+001
9.932023e+002,9.177985e+001
9.951307e+002,9.154504e+001
9.970593e+002,9.127379e+001
9.989879e+002,9.096420e+001
1.000916e+003,9.063055e+001
1.002845e+003,9.024821e+001
1.004774e+003,8.981417e+001
1.006702e+003,8.929213e+001
1.008631e+003,8.864095e+001
1.010559e+003,8.787532e+001
1.012488e+003,8.696193e+001
1.014416e+003,8.585252e+001
1.016345e+003,8.454821e+001
1.018273e+003,8.311028e+001
1.020202e+003,8.163629e+001
1.022130e+003,8.017281e+001
1.024059e+003,7.884556e+001
1.025988e+003,7.770752e+001
1.027916e+003,7.668292e+001
1.029845e+003,7.562159e+001
1.031773e+003,7.434920e+001
1.033702e+003,7.272408e+001
1.035630e+003,7.083725e+001
1.037559e+003,6.882016e+001
1.039487e+003,6.692727e+001
1.041416e+003,6.537449e+001
1.043344e+003,6.435938e+001
1.045273e+003,6.391234e+001
1.047202e+003,6.405747e+001
1.049130e+003,6.463975e+001
1.051059e+003,6.552474e+001
1.052987e+003,6.653947e+001
1.054916e+003,6.761555e+001
1.056844e+003,6.866280e+001
1.058773e+003,6.959057e+001
1.060701e+003,7.017235e+001
1.062630e+003,7.009197e+001
1.064558e+003,6.902338e+001
1.066487e+003,6.694653e+001
1.068416e+003,6.400390e+001
1.070344e+003,6.041657e+001
1.072273e+003,5.638029e+001
1.074201e+003,5.213482e+001
1.076130e+003,4.786990e+001
1.078058e+003,4.391608e+001
1.079987e+003,4.047594e+001
1.081915e+003,3.785342e+001
1.083844e+003,3.624884e+001
1.085773e+003,3.583301e+001
1.087701e+003,3.648283e+001
1.089630e+003,3.797975e+001
1.091558e+003,3.996279e+001
1.093487e+003,4.223765e+001
1.095415e+003,4.465584e+001
1.097344e+003,4.721589e+001
1.099272e+003,4.985547e+001
1.101201e+003,5.260731e+001
1.103129e+003,5.541810e+001
1.105058e+003,5.824879e+001
1.106987e+003,6.098055e+001
1.108915e+003,6.347562e+001
1.110844e+003,6.550470e+001
1.112772e+003,6.692995e+001
1.114701e+003,6.767200e+001
1.116629e+003,6.778464e+001
1.118558e+003,6.736216e+001
1.120486e+003,6.646735e+001
1.122415e+003,6.509801e+001
1.124344e+003,6.342133e+001
1.126272e+003,6.187060e+001
1.128201e+003,6.100570e+001
1.130129e+003,6.111100e+001
1.132058e+003,6.209690e+001
1.133986e+003,6.374447e+001
1.135915e+003,6.603302e+001
1.137843e+003,6.892301e+001
1.139772e+003,7.228071e+001
1.141700e+003,7.587870e+001
1.143629e+003,7.939325e+001
1.145557e+003,8.250783e+001
1.147486e+003,8.501003e+001
1.149415e+003,8.681537e+001
1.151343e+003,8.798147e+001
1.153272e+003,8.861777e+001
1.155200e+003,8.884227e+001
1.157129e+003,8.875839e+001
1.159057e+003,8.838573e+001
1.160986e+003,8.768040e+001
1.162914e+003,8.661961e+001
1.164843e+003,8.514234e+001
1.166771e+003,8.310191e+001
1.168700e+003,8.033526e+001
1.170629e+003,7.667101e+001
1.172557e+003,7.196548e+001
1.174486e+003,6.614193e+001
1.176414e+003,5.960287e+001
1.178343e+003,5.345008e+001
1.180271e+003,4.907365e+001
1.182200e+003,4.741372e+001
1.184128e+003,4.826319e+001
1.186057e+003,5.067851e+001
1.187986e+003,5.373372e+001
1.189914e+003,5.681404e+001
1.191843e+003,5.958078e+001
1.193771e+003,6.188486e+001
1.195700e+003,6.370576e+001
1.197628e+003,6.509908e+001
1.199557e+003,6.611176e+001
1.201485e+003,6.680678e+001
1.203414e+003,6.726671e+001
1.205343e+003,6.758636e+001
1.207271e+003,6.787798e+001
1.209200e+003,6.826949e+001
1.211128e+003,6.886323e+001
1.213057e+003,6.971638e+001
1.214985e+003,7.085783e+001
1.216914e+003,7.223310e+001
1.218842e+003,7.375087e+001
1.220771e+003,7.531886e+001
1.222699e+003,7.687856e+001
1.224628e+003,7.837973e+001
1.226557e+003,7.978634e+001
1.228485e+003,8.105557e+001
1.230414e+003,8.219697e+001
1.232342e+003,8.319455e+001
1.234271e+003,8.401885e+001
1.236199e+003,8.466772e+001
1.238128e+003,8.521073e+001
1.240056e+003,8.565331e+001
1.241985e+003,8.599506e+001
1.243913e+003,8.624312e+001
1.245842e+003,8.641066e+001
1.247771e+003,8.648178e+001
1.249699e+003,8.645975e+001
1.251628e+003,8.632233e+001
1.253556e+003,8.607909e+001
1.255485e+003,8.574047e+001
1.257413e+003,8.534057e+001
1.259342e+003,8.490739e+001
1.261270e+003,8.448859e+001
1.263199e+003,8.414686e+001
1.265127e+003,8.397173e+001
1.267056e+003,8.397921e+001
1.268985e+003,8.416249e+001
1.270913e+003,8.455027e+001
1.272842e+003,8.516750e+001
1.274770e+003,8.595956e+001
1.276699e+003,8.691761e+001
1.278627e+003,8.797854e+001
1.280556e+003,8.910819e+001
1.282484e+003,9.022958e+001
1.284413e+003,9.124773e+001
1.286342e+003,9.206303e+001
1.288270e+003,9.263893e+001
1.290199e+003,9.291492e+001
1.292127e+003,9.291797e+001
1.294056e+003,9.271052e+001
1.295984e+003,9.241156e+001
1.297913e+003,9.214356e+001
1.299841e+003,9.197248e+001
1.301770e+003,9.188465e+001
1.303698e+003,9.185202e+001
1.305627e+003,9.184555e+001
1.307556e+003,9.188373e+001
1.309484e+003,9.196213e+001
1.311413e+003,9.205558e+001
1.313341e+003,9.211842e+001
1.315270e+003,9.218688e+001
1.317198e+003,9.223409e+001
1.319127e+003,9.223657e+001
1.321055e+003,9.224161e+001
1.322984e+003,9.226073e+001
1.324912e+003,9.224633e+001
1.326841e+003,9.222272e+001
1.328770e+003,9.214547e+001
1.330698e+003,9.199696e+001
1.332627e+003,9.180288e+001
1.334555e+003,9.159509e+001
1.336484e+003,9.131824e+001
1.338412e+003,9.098522e+001
1.340341e+003,9.055621e+001
1.342269e+003,9.009123e+001
1.344198e+003,8.957626e+001
1.346126e+003,8.895385e+001
1.348055e+003,8.821440e+001
1.349984e+003,8.739192e+001
1.351912e+003,8.656039e+001
1.353841e+003,8.579097e+001
1.355769e+003,8.513318e+001
1.357698e+003,8.473475e+001
1.359626e+003,8.456628e+001
1.361555e+003,8.459289e+001
1.363483e+003,8.472565e+001
1.365412e+003,8.495055e+001
1.367341e+003,8.527333e+001
1.369269e+003,8.583596e+001
1.371198e+003,8.656047e+001
1.373126e+003,8.721215e+001
1.375055e+003,8.726599e+001
1.376983e+003,8.655196e+001
1.378912e+003,8.546223e+001
1.380840e+003,8.467675e+001
1.382769e+003,8.455335e+001
1.384698e+003,8.516158e+001
1.386626e+003,8.639831e+001
1.388555e+003,8.819237e+001
1.390483e+003,8.984840e+001
1.392412e+003,9.140450e+001
1.394340e+003,9.298319e+001
1.396269e+003,9.447379e+001
1.398197e+003,9.543114e+001
1.400126e+003,9.611307e+001
1.402054e+003,9.651643e+001
1.403983e+003,9.678636e+001
1.405911e+003,9.695419e+001
1.407840e+003,9.709397e+001
1.409769e+003,9.718848e+001
1.411697e+003,9.723270e+001
1.413626e+003,9.723940e+001
1.415554e+003,9.724808e+001
1.417483e+003,9.723823e+001
1.419411e+003,9.719359e+001
1.421340e+003,9.715968e+001
1.423268e+003,9.710793e+001
1.425197e+003,9.697690e+001
1.427125e+003,9.686324e+001
1.429054e+003,9.664441e+001
1.430983e+003,9.629040e+001
1.432911e+003,9.589003e+001
1.434840e+003,9.540039e+001
1.436768e+003,9.426865e+001
1.438697e+003,9.278667e+001
1.440625e+003,9.120722e+001
1.442554e+003,8.912726e+001
1.444482e+003,8.701746e+001
1.446411e+003,8.530801e+001
1.448340e+003,8.388207e+001
1.450268e+003,8.312606e+001
1.452197e+003,8.282095e+001
1.454125e+003,8.291759e+001
1.456054e+003,8.340611e+001
1.457982e+003,8.494286e+001
1.459911e+003,8.646694e+001
1.461839e+003,8.796616e+001
1.463768e+003,8.966486e+001
1.465697e+003,9.178330e+001
1.467625e+003,9.336339e+001
1.469554e+003,9.451821e+001
1.471482e+003,9.541075e+001
1.473411e+003,9.627659e+001
1.475339e+003,9.685016e+001
1.477268e+003,9.730769e+001
1.479196e+003,9.759904e+001
1.481125e+003,9.777673e+001
1.483053e+003,9.788171e+001
1.484982e+003,9.801416e+001
1.486911e+003,9.808133e+001
1.488839e+003,9.810692e+001
1.490768e+003,9.809332e+001
1.492696e+003,9.817035e+001
1.494625e+003,9.822649e+001
1.496553e+003,9.824953e+001
1.498482e+003,9.824731e+001
1.500410e+003,9.828284e+001
1.502339e+003,9.833991e+001
1.504267e+003,9.844376e+001
1.506196e+003,9.845609e+001
1.508125e+003,9.835904e+001
1.510053e+003,9.839043e+001
1.511982e+003,9.846085e+001
1.513910e+003,9.849361e+001
1.515839e+003,9.851652e+001
1.517767e+003,9.849921e+001
1.519696e+003,9.852578e+001
1.521624e+003,9.848985e+001
1.523553e+003,9.849580e+001
1.525481e+003,9.851794e+001
1.527410e+003,9.853479e+001
1.529339e+003,9.856171e+001
1.531267e+003,9.861288e+001
1.533196e+003,9.860080e+001
1.535124e+003,9.854353e+001
1.537053e+003,9.857362e+001
1.538981e+003,9.867197e+001
1.540910e+003,9.866912e+001
1.542838e+003,9.863432e+001
1.544767e+003,9.862243e+001
1.546696e+003,9.864533e+001
1.548624e+003,9.868388e+001
1.550553e+003,9.869521e+001
1.552481e+003,9.868843e+001
1.554410e+003,9.867651e+001
1.556338e+003,9.871605e+001
1.558267e+003,9.880447e+001
1.560195e+003,9.870378e+001
1.562124e+003,9.871288e+001
1.564052e+003,9.873766e+001
1.565981e+003,9.875719e+001
1.567910e+003,9.879667e+001
1.569838e+003,9.876374e+001
1.571767e+003,9.872877e+001
1.573695e+003,9.879066e+001
1.575624e+003,9.879652e+001
1.577552e+003,9.874643e+001
1.579481e+003,9.876310e+001
1.581409e+003,9.878257e+001
1.583338e+003,9.877694e+001
1.585266e+003,9.879135e+001
1.587195e+003,9.878863e+001
1.589124e+003,9.877374e+001
1.591052e+003,9.874608e+001
1.592981e+003,9.873689e+001
1.594909e+003,9.872044e+001
1.596838e+003,9.871485e+001
1.598766e+003,9.871091e+001
1.600695e+003,9.870586e+001
1.602623e+003,9.868642e+001
1.604552e+003,9.868269e+001
1.606480e+003,9.869060e+001
1.608409e+003,9.867014e+001
1.610338e+003,9.863392e+001
1.612266e+003,9.864165e+001
1.614195e+003,9.865451e+001
1.616123e+003,9.862607e+001
1.618052e+003,9.854947e+001
1.619980e+003,9.856557e+001
1.621909e+003,9.856925e+001
1.623837e+003,9.850184e+001
1.625766e+003,9.849044e+001
1.627695e+003,9.848141e+001
1.629623e+003,9.843938e+001
1.631552e+003,9.845159e+001
1.633480e+003,9.846851e+001
1.635409e+003,9.838828e+001
1.637337e+003,9.825363e+001
1.639266e+003,9.829204e+001
1.641194e+003,9.832259e+001
1.643123e+003,9.836237e+001
1.645052e+003,9.839825e+001
1.646980e+003,9.832447e+001
1.648909e+003,9.826944e+001
1.650837e+003,9.834163e+001
1.652766e+003,9.829393e+001
1.654694e+003,9.810341e+001
1.656623e+003,9.815495e+001
1.658551e+003,9.818815e+001
1.660480e+003,9.818174e+001
1.662408e+003,9.813233e+001
1.664337e+003,9.805778e+001
1.666266e+003,9.805743e+001
1.668194e+003,9.801997e+001
1.670123e+003,9.787491e+001
1.672051e+003,9.779327e+001
1.673980e+003,9.779899e+001
1.675908e+003,9.771481e+001
1.677837e+003,9.766653e+001
1.679765e+003,9.760129e+001
1.681694e+003,9.754812e+001
1.683622e+003,9.747478e+001
1.685551e+003,9.723849e+001
1.687479e+003,9.717258e+001
1.689408e+003,9.705999e+001
1.691337e+003,9.691389e+001
1.693265e+003,9.681837e+001
1.695194e+003,9.664324e+001
1.697122e+003,9.631681e+001
1.699051e+003,9.614021e+001
1.700979e+003,9.560192e+001
1.702908e+003,9.525729e+001
1.704836e+003,9.491653e+001
1.706765e+003,9.433445e+001
1.708694e+003,9.380798e+001
1.710622e+003,9.323000e+001
1.712551e+003,9.261536e+001
1.714479e+003,9.196509e+001
1.716408e+003,9.117733e+001
1.718336e+003,9.013348e+001
1.720265e+003,8.929415e+001
1.722193e+003,8.863573e+001
1.724122e+003,8.761849e+001
1.726051e+003,8.642226e+001
1.727979e+003,8.501778e+001
1.729908e+003,8.311935e+001
1.731836e+003,8.104328e+001
1.733765e+003,7.782259e+001
1.735693e+003,7.279391e+001
1.737622e+003,6.942876e+001
1.739550e+003,6.423616e+001
1.741479e+003,5.835064e+001
1.743407e+003,5.324431e+001
1.745336e+003,4.886436e+001
1.747265e+003,4.568195e+001
1.749193e+003,4.373066e+001
1.751122e+003,4.293058e+001
1.753050e+003,4.360019e+001
1.754979e+003,4.496827e+001
1.756907e+003,4.796445e+001
1.758836e+003,5.163791e+001
1.760764e+003,5.560240e+001
1.762693e+003,6.049854e+001
1.764621e+003,6.457755e+001
1.766550e+003,6.782719e+001
1.768479e+003,7.118957e+001
1.770407e+003,7.374528e+001
1.772336e+003,7.633729e+001
1.774264e+003,7.871867e+001
1.776193e+003,8.068671e+001
1.778121e+003,8.272310e+001
1.780050e+003,8.491355e+001
1.781978e+003,8.718835e+001
1.783907e+003,8.921365e+001
1.785835e+003,9.117179e+001
1.787764e+003,9.274028e+001
1.789693e+003,9.390367e+001
1.791621e+003,9.490695e+001
1.793550e+003,9.573134e+001
1.795478e+003,9.624915e+001
1.797407e+003,9.664568e+001
1.799335e+003,9.696549e+001
1.801264e+003,9.721518e+001
1.803192e+003,9.741321e+001
1.805121e+003,9.759957e+001
1.807049e+003,9.774728e+001
1.808978e+003,9.785050e+001
1.810907e+003,9.793932e+001
1.812835e+003,9.803960e+001
1.814764e+003,9.813257e+001
1.816692e+003,9.821835e+001
1.818621e+003,9.830330e+001
1.820549e+003,9.839130e+001
1.822478e+003,9.846463e+001
1.824406e+003,9.851373e+001
1.826335e+003,9.856963e+001
1.828264e+003,9.867057e+001
1.830192e+003,9.871857e+001
1.832121e+003,9.878877e+001
1.834049e+003,9.887641e+001
1.835978e+003,9.894678e+001
1.837906e+003,9.901305e+001
1.839835e+003,9.909958e+001
1.841763e+003,9.918586e+001
1.843692e+003,9.922565e+001
1.845620e+003,9.920474e+001
1.847549e+003,9.923896e+001
1.849478e+003,9.929122e+001
1.851406e+003,9.933878e+001
1.853335e+003,9.936778e+001
1.855263e+003,9.940156e+001
1.857192e+003,9.942909e+001
1.859120e+003,9.945748e+001
1.861049e+003,9.948579e+001
1.862977e+003,9.951550e+001
1.864906e+003,9.954257e+001
1.866834e+003,9.956443e+001
1.868763e+003,9.955607e+001
1.870692e+003,9.957066e+001
1.872620e+003,9.959810e+001
1.874549e+003,9.961338e+001
1.876477e+003,9.962422e+001
1.878406e+003,9.964541e+001
1.880334e+003,9.966680e+001
1.882263e+003,9.967661e+001
1.884191e+003,9.966618e+001
1.886120e+003,9.969185e+001
1.888048e+003,9.972440e+001
1.889977e+003,9.971942e+001
1.891906e+003,9.972589e+001
1.893834e+003,9.974274e+001
1.895763e+003,9.972971e+001
1.897691e+003,9.973928e+001
1.899620e+003,9.976505e+001
1.901548e+003,9.978453e+001
1.903477e+003,9.978153e+001
1.905405e+003,9.979005e+001
1.907334e+003,9.980109e+001
1.909263e+003,9.980151e+001
1.911191e+003,9.979566e+001
1.913120e+003,9.981722e+001
1.915048e+003,9.984946e+001
1.916977e+003,9.988235e+001
1.918905e+003,9.986781e+001
1.920834e+003,9.987265e+001
1.922762e+003,9.986143e+001
1.924691e+003,9.987423e+001
1.926620e+003,9.990851e+001
1.928548e+003,9.993307e+001
1.930477e+003,9.993246e+001
1.932405e+003,9.992532e+001
1.934334e+003,9.992354e+001
1.936262e+003,9.991681e+001
1.938191e+003,9.991298e+001
1.940119e+003,9.992684e+001
1.942048e+003,9.991992e+001
1.943976e+003,9.990876e+001
1.945905e+003,9.990784e+001
1.947833e+003,9.990166e+001
1.949762e+003,9.989483e+001
1.951691e+003,9.987936e+001
1.953619e+003,9.986497e+001
1.955548e+003,9.987585e+001
1.957476e+003,9.986204e+001
1.959405e+003,9.985301e+001
1.961333e+003,9.986478e+001
1.963262e+003,9.987544e+001
1.965190e+003,9.986672e+001
1.967119e+003,9.983282e+001
1.969047e+003,9.982513e+001
1.970976e+003,9.985223e+001
1.972905e+003,9.986533e+001
1.974833e+003,9.988390e+001
1.976762e+003,9.988345e+001
1.978690e+003,9.988336e+001
1.980619e+003,9.988955e+001
1.982547e+003,9.990094e+001
1.984476e+003,9.990366e+001
1.986404e+003,9.991434e+001
1.988333e+003,9.992004e+001
1.990262e+003,9.992343e+001
1.992190e+003,9.991926e+001
1.994119e+003,9.991592e+001
1.996047e+003,9.992388e+001
1.997976e+003,9.993087e+001
1.999904e+003,9.992418e+001
2.001833e+003,9.991963e+001
2.003761e+003,9.993277e+001
2.005690e+003,9.994139e+001
2.007619e+003,9.993655e+001
2.009547e+003,9.993909e+001
2.011476e+003,9.995440e+001
2.013404e+003,9.997265e+001
2.015333e+003,9.997865e+001
2.017261e+003,9.997727e+001
2.019190e+003,9.998335e+001
2.021118e+003,1.000055e+002
2.023047e+003,1.000021e+002
2.024975e+003,1.000037e+002
2.026904e+003,1.000106e+002
2.028833e+003,1.000231e+002
2.030761e+003,1.000349e+002
2.032690e+003,1.000423e+002
2.034618e+003,1.000365e+002
2.036547e+003,1.000404e+002
2.038475e+003,1.000461e+002
2.040404e+003,1.000550e+002
2.042332e+003,1.000462e+002
2.044261e+003,1.000362e+002
2.046189e+003,1.000211e+002
2.048118e+003,1.000229e+002
2.050046e+003,1.000090e+002
2.051975e+003,9.998858e+001
2.053904e+003,9.998195e+001
2.055832e+003,9.998636e+001
2.057761e+003,9.998459e+001
2.059689e+003,9.997385e+001
2.061618e+003,9.996470e+001
2.063546e+003,9.997556e+001
2.065475e+003,9.998675e+001
2.067403e+003,1.000002e+002
2.069332e+003,1.000006e+002
2.071260e+003,9.999492e+001
2.073189e+003,9.999102e+001
2.075118e+003,9.999391e+001
2.077046e+003,9.998606e+001
2.078975e+003,9.997414e+001
2.080903e+003,9.997632e+001
2.082832e+003,9.998840e+001
2.084760e+003,1.000000e+002
2.086689e+003,1.000114e+002
2.088617e+003,1.000225e+002
2.090546e+003,1.000266e+002
2.092475e+003,1.000410e+002
2.094403e+003,1.000598e+002
2.096332e+003,1.000644e+002
2.098260e+003,1.000649e+002
2.100189e+003,1.000740e+002
2.102117e+003,1.000954e+002
2.104046e+003,1.001065e+002
2.105974e+003,1.001105e+002
2.107903e+003,1.001074e+002
2.109832e+003,1.001218e+002
2.111760e+003,1.001355e+002
2.113688e+003,1.001337e+002
2.115617e+003,1.001337e+002
2.117546e+003,1.001361e+002
2.119474e+003,1.001274e+002
2.121403e+003,1.001339e+002
2.123331e+003,1.001552e+002
2.125260e+003,1.001766e+002
2.127188e+003,1.001793e+002
2.129117e+003,1.001831e+002
2.131045e+003,1.001839e+002
2.132974e+003,1.001946e+002
2.134903e+003,1.002200e+002
2.136831e+003,1.002533e+002
2.138760e+003,1.002780e+002
2.140688e+003,1.002995e+002
2.142617e+003,1.003037e+002
2.144545e+003,1.003249e+002
2.146474e+003,1.003535e+002
2.148402e+003,1.003710e+002
2.150331e+003,1.003912e+002
2.152260e+003,1.004148e+002
2.154188e+003,1.004243e+002
2.156117e+003,1.004576e+002
2.158045e+003,1.004849e+002
2.159974e+003,1.004912e+002
2.161902e+003,1.004897e+002
2.163831e+003,1.004885e+002
2.165759e+003,1.004917e+002
2.167688e+003,1.004995e+002
2.169616e+003,1.004933e+002
2.171545e+003,1.004946e+002
2.173474e+003,1.005008e+002
2.175402e+003,1.004986e+002
2.177331e+003,1.004889e+002
2.179259e+003,1.004961e+002
2.181188e+003,1.004916e+002
2.183116e+003,1.004916e+002
2.185045e+003,1.005090e+002
2.186973e+003,1.005108e+002
2.188902e+003,1.004960e+002
2.190831e+003,1.005010e+002
2.192759e+003,1.005034e+002
2.194688e+003,1.004970e+002
2.196616e+003,1.004967e+002
2.198545e+003,1.004891e+002
2.200473e+003,1.004728e+002
2.202402e+003,1.004578e+002
2.204330e+003,1.004513e+002
2.206259e+003,1.004620e+002
2.208188e+003,1.004648e+002
2.210116e+003,1.004428e+002
2.212044e+003,1.004255e+002
2.213973e+003,1.004213e+002
2.215902e+003,1.004201e+002
2.217830e+003,1.004118e+002
2.219759e+003,1.003965e+002
2.221687e+003,1.003971e+002
2.223616e+003,1.003926e+002
2.225544e+003,1.003791e+002
2.227473e+003,1.003700e+002
2.229401e+003,1.003697e+002
2.231330e+003,1.003658e+002
2.233259e+003,1.003651e+002
2.235187e+003,1.003647e+002
2.237116e+003,1.003687e+002
2.239044e+003,1.003697e+002
2.240973e+003,1.003733e+002
2.242901e+003,1.003827e+002
2.244830e+003,1.003760e+002
2.246758e+003,1.003688e+002
2.248687e+003,1.003720e+002
2.250615e+003,1.003640e+002
2.252544e+003,1.003689e+002
2.254473e+003,1.003717e+002
2.256401e+003,1.003712e+002
2.258330e+003,1.003705e+002
2.260258e+003,1.003868e+002
2.262187e+003,1.003836e+002
2.264115e+003,1.003636e+002
2.266044e+003,1.003470e+002
2.267972e+003,1.003412e+002
2.269901e+003,1.003397e+002
2.271830e+003,1.003547e+002
2.273758e+003,1.003599e+002
2.275687e+003,1.003554e+002
2.277615e+003,1.003349e+002
2.279544e+003,1.003237e+002
2.281472e+003,1.003245e+002
2.283401e+003,1.003278e+002
2.285329e+003,1.003257e+002
2.287258e+003,1.003130e+002
2.289187e+003,1.002968e+002
2.291115e+003,1.002800e+002
2.293043e+003,1.002567e+002
2.294972e+003,1.002540e+002
2.296901e+003,1.002477e+002
2.298829e+003,1.002288e+002
2.300758e+003,1.002410e+002
2.302686e+003,1.002781e+002
2.304615e+003,1.002900e+002
2.306543e+003,1.003064e+002
2.308472e+003,1.003378e+002
2.310400e+003,1.003402e+002
2.312329e+003,1.003445e+002
2.314258e+003,1.004144e+002
2.316186e+003,1.004962e+002
2.318115e+003,1.005777e+002
2.320043e+003,1.006920e+002
2.321972e+003,1.007952e+002
2.323900e+003,1.008493e+002
2.325829e+003,1.009572e+002
2.327757e+003,1.011274e+002
2.329686e+003,1.012555e+002
2.331615e+003,1.013121e+002
2.333543e+003,1.013310e+002
2.335472e+003,1.013908e+002
2.337400e+003,1.014854e+002
2.339329e+003,1.016292e+002
2.341257e+003,1.018074e+002
2.343186e+003,1.018060e+002
2.345114e+003,1.015668e+002
2.347043e+003,1.011503e+002
2.348971e+003,1.010527e+002
2.350900e+003,1.013725e+002
2.352829e+003,1.019889e+002
2.354757e+003,1.027605e+002
2.356686e+003,1.034938e+002
2.358614e+003,1.039399e+002
2.360543e+003,1.041352e+002
2.362471e+003,1.040699e+002
2.364400e+003,1.038516e+002
2.366328e+003,1.033549e+002
2.368257e+003,1.026872e+002
2.370186e+003,1.021251e+002
2.372114e+003,1.016531e+002
2.374042e+003,1.012189e+002
2.375971e+003,1.009214e+002
2.377900e+003,1.007411e+002
2.379828e+003,1.006018e+002
2.381757e+003,1.005029e+002
2.383685e+003,1.004482e+002
2.385614e+003,1.004232e+002
2.387542e+003,1.004211e+002
2.389471e+003,1.004191e+002
2.391399e+003,1.004141e+002
2.393328e+003,1.004018e+002
2.395257e+003,1.003925e+002
2.397185e+003,1.003912e+002
2.399114e+003,1.003952e+002
2.401042e+003,1.003856e+002
2.402971e+003,1.003744e+002
2.404899e+003,1.003799e+002
2.406828e+003,1.003982e+002
2.408756e+003,1.004114e+002
2.410685e+003,1.004012e+002
2.412614e+003,1.004005e+002
2.414542e+003,1.004195e+002
2.416471e+003,1.004186e+002
2.418399e+003,1.004207e+002
2.420328e+003,1.004273e+002
2.422256e+003,1.004303e+002
2.424185e+003,1.004266e+002
2.426113e+003,1.004256e+002
2.428042e+003,1.004345e+002
2.429970e+003,1.004608e+002
2.431899e+003,1.004686e+002
2.433828e+003,1.004566e+002
2.435756e+003,1.004509e+002
2.437685e+003,1.004522e+002
2.439613e+003,1.004480e+002
2.441542e+003,1.004528e+002
2.443470e+003,1.004536e+002
2.445399e+003,1.004492e+002
2.447327e+003,1.004507e+002
2.449256e+003,1.004496e+002
2.451185e+003,1.004408e+002
2.453113e+003,1.004331e+002
2.455042e+003,1.004371e+002
2.456970e+003,1.004372e+002
2.458899e+003,1.004452e+002
2.460827e+003,1.004485e+002
2.462756e+003,1.004374e+002
2.464684e+003,1.004378e+002
2.466613e+003,1.004436e+002
2.468542e+003,1.004417e+002
2.470470e+003,1.004248e+002
2.472398e+003,1.004189e+002
2.474327e+003,1.004323e+002
2.476256e+003,1.004463e+002
2.478184e+003,1.004361e+002
2.480113e+003,1.004264e+002
2.482041e+003,1.004236e+002
2.483970e+003,1.004114e+002
2.485898e+003,1.003984e+002
2.487827e+003,1.003974e+002
2.489755e+003,1.004064e+002
2.491684e+003,1.004229e+002
2.493613e+003,1.004061e+002
2.495541e+003,1.003924e+002
2.497470e+003,1.003897e+002
2.499398e+003,1.003934e+002
2.501327e+003,1.003948e+002
2.503255e+003,1.003891e+002
2.505184e+003,1.003920e+002
2.507112e+003,1.003844e+002
2.509041e+003,1.003861e+002
2.510969e+003,1.003956e+002
2.512898e+003,1.003909e+002
2.514827e+003,1.003913e+002
2.516755e+003,1.004004e+002
2.518684e+003,1.003969e+002
2.520612e+003,1.003887e+002
2.522541e+003,1.003997e+002
2.524469e+003,1.004027e+002
2.526398e+003,1.004077e+002
2.528326e+003,1.004097e+002
2.530255e+003,1.004025e+002
2.532184e+003,1.004031e+002
2.534112e+003,1.004074e+002
2.536041e+003,1.004134e+002
2.537969e+003,1.004089e+002
2.539898e+003,1.003995e+002
2.541826e+003,1.004014e+002
2.543755e+003,1.004138e+002
2.545683e+003,1.004251e+002
2.547612e+003,1.004170e+002
2.549541e+003,1.004092e+002
2.551469e+003,1.003976e+002
2.553397e+003,1.004066e+002
2.555326e+003,1.004173e+002
2.557255e+003,1.004133e+002
2.559183e+003,1.004143e+002
2.561112e+003,1.004156e+002
2.563040e+003,1.004086e+002
2.564969e+003,1.003991e+002
2.566897e+003,1.003896e+002
2.568826e+003,1.003857e+002
2.570754e+003,1.003821e+002
2.572683e+003,1.003722e+002
2.574612e+003,1.003741e+002
2.576540e+003,1.003846e+002
2.578469e+003,1.003866e+002
2.580397e+003,1.003814e+002
2.582326e+003,1.003824e+002
2.584254e+003,1.003933e+002
2.586183e+003,1.004033e+002
2.588111e+003,1.004084e+002
2.590040e+003,1.003974e+002
2.591969e+003,1.003870e+002
2.593897e+003,1.003898e+002
2.595826e+003,1.003934e+002
2.597754e+003,1.003928e+002
2.599683e+003,1.003895e+002
2.601611e+003,1.004026e+002
2.603540e+003,1.004209e+002
2.605468e+003,1.004196e+002
2.607397e+003,1.004189e+002
2.609325e+003,1.004138e+002
2.611254e+003,1.004078e+002
2.613183e+003,1.004066e+002
2.615111e+003,1.003972e+002
2.617040e+003,1.004011e+002
2.618968e+003,1.004125e+002
2.620897e+003,1.004051e+002
2.622825e+003,1.003969e+002
2.624754e+003,1.003845e+002
2.626682e+003,1.003846e+002
2.628611e+003,1.003911e+002
2.630540e+003,1.003987e+002
2.632468e+003,1.003925e+002
2.634396e+003,1.003782e+002
2.636325e+003,1.003513e+002
2.638254e+003,1.003411e+002
2.640182e+003,1.003698e+002
2.642111e+003,1.003932e+002
2.644039e+003,1.003992e+002
2.645968e+003,1.003912e+002
2.647896e+003,1.003910e+002
2.649825e+003,1.003983e+002
2.651753e+003,1.004067e+002
2.653682e+003,1.004185e+002
2.655611e+003,1.004232e+002
2.657539e+003,1.004061e+002
2.659468e+003,1.003854e+002
2.661396e+003,1.003836e+002
2.663325e+003,1.004001e+002
2.665253e+003,1.004014e+002
2.667182e+003,1.003916e+002
2.669110e+003,1.003922e+002
2.671039e+003,1.003876e+002
2.672968e+003,1.003684e+002
2.674896e+003,1.003636e+002
2.676825e+003,1.003405e+002
2.678753e+003,1.003150e+002
2.680682e+003,1.003198e+002
2.682610e+003,1.003807e+002
2.684539e+003,1.004416e+002
2.686467e+003,1.004519e+002
2.688396e+003,1.004512e+002
2.690324e+003,1.004451e+002
2.692253e+003,1.004459e+002
2.694182e+003,1.004351e+002
2.696110e+003,1.004274e+002
2.698039e+003,1.004152e+002
2.699967e+003,1.004203e+002
2.701896e+003,1.004371e+002
2.703824e+003,1.004385e+002
2.705753e+003,1.004427e+002
2.707681e+003,1.004485e+002
2.709610e+003,1.004304e+002
2.711539e+003,1.004408e+002
2.713467e+003,1.004638e+002
2.715396e+003,1.004744e+002
2.717324e+003,1.004627e+002
2.719253e+003,1.004326e+002
2.721181e+003,1.003746e+002
2.723110e+003,1.003326e+002
2.725038e+003,1.002922e+002
2.726967e+003,1.002962e+002
2.728896e+003,1.003858e+002
2.730824e+003,1.004338e+002
2.732752e+003,1.004399e+002
2.734681e+003,1.004098e+002
2.736610e+003,1.003639e+002
2.738538e+003,1.003686e+002
2.740467e+003,1.004050e+002
2.742395e+003,1.004111e+002
2.744324e+003,1.003908e+002
2.746252e+003,1.003264e+002
2.748181e+003,1.002760e+002
2.750109e+003,1.002999e+002
2.752038e+003,1.003664e+002
2.753967e+003,1.004057e+002
2.755895e+003,1.003986e+002
2.757824e+003,1.003966e+002
2.759752e+003,1.004097e+002
2.761681e+003,1.004247e+002
2.763609e+003,1.004278e+002
2.765538e+003,1.004277e+002
2.767466e+003,1.004295e+002
2.769395e+003,1.004313e+002
2.771323e+003,1.003934e+002
2.773252e+003,1.003092e+002
2.775181e+003,1.002789e+002
2.777109e+003,1.003619e+002
2.779038e+003,1.004078e+002
2.780966e+003,1.003907e+002
2.782895e+003,1.003857e+002
2.784823e+003,1.003937e+002
2.786752e+003,1.003342e+002
2.788680e+003,1.002256e+002
2.790609e+003,1.002149e+002
2.792538e+003,1.002736e+002
2.794466e+003,1.002903e+002
2.796395e+003,1.002365e+002
2.798323e+003,1.001876e+002
2.800252e+003,1.002450e+002
2.802180e+003,1.003086e+002
2.804109e+003,1.003082e+002
2.806037e+003,1.002818e+002
2.807966e+003,1.002203e+002
2.809895e+003,1.001704e+002
2.811823e+003,1.002267e+002
2.813751e+003,1.002676e+002
2.815680e+003,1.002369e+002
2.817609e+003,1.002050e+002
2.819537e+003,1.001721e+002
2.821466e+003,1.001488e+002
2.823394e+003,1.001375e+002
2.825323e+003,1.001448e+002
2.827251e+003,1.001458e+002
2.829180e+003,1.001204e+002
2.831108e+003,1.000636e+002
2.833037e+003,9.998988e+001
2.834966e+003,9.991145e+001
2.836894e+003,9.979029e+001
2.838823e+003,9.967500e+001
2.840751e+003,9.969862e+001
2.842680e+003,9.965957e+001
2.844608e+003,9.943727e+001
2.846537e+003,9.899760e+001
2.848465e+003,9.846207e+001
2.850394e+003,9.816765e+001
2.852323e+003,9.821346e+001
2.854251e+003,9.845143e+001
2.856180e+003,9.868979e+001
2.858108e+003,9.886197e+001
2.860037e+003,9.901247e+001
2.861965e+003,9.919942e+001
2.863894e+003,9.934927e+001
2.865822e+003,9.942088e+001
2.867751e+003,9.943727e+001
2.869679e+003,9.938701e+001
2.871608e+003,9.921524e+001
2.873537e+003,9.906908e+001
2.875465e+003,9.910561e+001
2.877394e+003,9.914980e+001
2.879322e+003,9.914310e+001
2.881251e+003,9.915092e+001
2.883179e+003,9.915602e+001
2.885108e+003,9.917339e+001
2.887036e+003,9.920147e+001
2.888965e+003,9.921709e+001
2.890894e+003,9.920839e+001
2.892822e+003,9.913795e+001
2.894750e+003,9.899530e+001
2.896679e+003,9.892660e+001
2.898608e+003,9.895462e+001
2.900536e+003,9.893154e+001
2.902465e+003,9.884044e+001
2.904393e+003,9.872697e+001
2.906322e+003,9.865852e+001
2.908250e+003,9.849727e+001
2.910179e+003,9.820090e+001
2.912107e+003,9.782406e+001
2.914036e+003,9.741751e+001
2.915965e+003,9.700617e+001
2.917893e+003,9.663560e+001
2.919822e+003,9.649155e+001
2.921750e+003,9.651101e+001
2.923679e+003,9.657954e+001
2.925607e+003,9.669139e+001
2.927536e+003,9.674413e+001
2.929464e+003,9.676279e+001
2.931393e+003,9.692284e+001
2.933322e+003,9.710880e+001
2.935250e+003,9.717305e+001
2.937179e+003,9.713091e+001
2.939107e+003,9.699027e+001
2.941036e+003,9.676930e+001
2.942964e+003,9.648420e+001
2.944893e+003,9.634222e+001
2.946821e+003,9.642567e+001
2.948750e+003,9.669202e+001
2.950678e+003,9.692976e+001
2.952607e+003,9.710078e+001
2.954536e+003,9.740820e+001
2.956464e+003,9.768482e+001
2.958393e+003,9.786242e+001
2.960321e+003,9.801754e+001
2.962250e+003,9.814314e+001
2.964178e+003,9.830223e+001
2.966107e+003,9.845733e+001
2.968035e+003,9.854930e+001
2.969964e+003,9.860434e+001
2.971893e+003,9.859543e+001
2.973821e+003,9.856332e+001
2.975750e+003,9.859492e+001
2.977678e+003,9.856515e+001
2.979607e+003,9.843730e+001
2.981535e+003,9.838438e+001
2.983464e+003,9.837457e+001
2.985392e+003,9.825651e+001
2.987321e+003,9.797499e+001
2.989250e+003,9.761436e+001
2.991178e+003,9.720964e+001
2.993106e+003,9.694372e+001
2.995035e+003,9.688542e+001
2.996964e+003,9.685229e+001
2.998892e+003,9.696657e+001
3.000821e+003,9.720576e+001
3.002749e+003,9.743520e+001
3.004678e+003,9.772089e+001
3.006606e+003,9.802245e+001
3.008535e+003,9.820367e+001
3.010463e+003,9.829315e+001
3.012392e+003,9.843082e+001
3.014321e+003,9.864153e+001
3.016249e+003,9.888485e+001
3.018178e+003,9.911862e+001
3.020106e+003,9.935627e+001
3.022035e+003,9.955804e+001
3.023963e+003,9.963860e+001
3.025892e+003,9.974570e+001
3.027820e+003,9.985668e+001
3.029749e+003,9.986488e+001
3.031677e+003,9.985779e+001
3.033606e+003,9.984209e+001
3.035535e+003,9.993272e+001
3.037463e+003,1.000558e+002
3.039392e+003,1.000195e+002
3.041320e+003,9.991262e+001
3.043249e+003,9.989407e+001
3.045177e+003,9.997234e+001
3.047106e+003,1.000728e+002
3.049034e+003,1.000444e+002
3.050963e+003,9.999756e+001
3.052892e+003,1.000697e+002
3.054820e+003,1.000931e+002
3.056749e+003,1.000952e+002
3.058677e+003,1.001820e+002
3.060606e+003,1.002475e+002
3.062534e+003,1.001983e+002
3.064463e+003,1.001332e+002
3.066391e+003,1.000556e+002
3.068320e+003,1.000619e+002
3.070249e+003,1.001623e+002
3.072177e+003,1.002346e+002
3.074105e+003,1.002067e+002
3.076034e+003,1.000791e+002
3.077963e+003,9.998115e+001
3.079891e+003,9.997852e+001
3.081820e+003,1.000138e+002
3.083748e+003,1.000229e+002
3.085677e+003,1.000300e+002
3.087605e+003,1.000449e+002
3.089534e+003,1.000514e+002
3.091462e+003,1.001120e+002
3.093391e+003,1.002101e+002
3.095320e+003,1.002453e+002
3.097248e+003,1.002007e+002
3.099177e+003,1.001239e+002
3.101105e+003,1.001587e+002
3.103034e+003,1.002566e+002
3.104962e+003,1.002667e+002
3.106891e+003,1.001880e+002
3.108819e+003,1.001370e+002
3.110748e+003,1.001976e+002
3.112677e+003,1.002044e+002
3.114605e+003,1.001003e+002
3.116534e+003,1.000260e+002
3.118462e+003,1.000027e+002
3.120391e+003,1.000309e+002
3.122319e+003,1.001721e+002
3.124248e+003,1.002820e+002
3.126176e+003,1.003048e+002
3.128105e+003,1.002598e+002
3.130033e+003,1.002549e+002
3.131962e+003,1.003264e+002
3.133891e+003,1.003651e+002
3.135819e+003,1.003337e+002
3.137748e+003,1.002133e+002
3.139676e+003,1.001730e+002
3.141605e+003,1.003027e+002
3.143533e+003,1.003821e+002
3.145462e+003,1.003752e+002
3.147390e+003,1.003600e+002
3.149319e+003,1.002985e+002
3.151248e+003,1.001667e+002
3.153176e+003,1.001467e+002
3.155104e+003,1.002750e+002
3.157033e+003,1.003818e+002
3.158962e+003,1.004170e+002
3.160890e+003,1.004435e+002
3.162819e+003,1.004547e+002
3.164747e+003,1.004519e+002
3.166676e+003,1.004563e+002
3.168604e+003,1.004521e+002
3.170533e+003,1.004331e+002
3.172461e+003,1.004297e+002
3.174390e+003,1.004582e+002
3.176319e+003,1.004894e+002
3.178247e+003,1.004843e+002
3.180176e+003,1.004730e+002
3.182104e+003,1.004482e+002
3.184033e+003,1.004219e+002
3.185961e+003,1.004317e+002
3.187890e+003,1.004195e+002
3.189818e+003,1.004194e+002
3.191747e+003,1.004427e+002
3.193676e+003,1.004599e+002
3.195604e+003,1.004774e+002
3.197532e+003,1.004774e+002
3.199461e+003,1.004736e+002
3.201390e+003,1.004395e+002
3.203318e+003,1.004262e+002
3.205247e+003,1.004308e+002
3.207175e+003,1.004549e+002
3.209104e+003,1.004999e+002
3.211032e+003,1.004968e+002
3.212961e+003,1.004467e+002
3.214889e+003,1.004253e+002
3.216818e+003,1.004325e+002
3.218747e+003,1.004138e+002
3.220675e+003,1.004574e+002
3.222604e+003,1.004965e+002
3.224532e+003,1.004884e+002
3.226461e+003,1.004830e+002
3.228389e+003,1.004492e+002
3.230318e+003,1.003382e+002
3.232246e+003,1.001743e+002
3.234175e+003,1.001716e+002
3.236104e+003,1.003219e+002
3.238032e+003,1.004312e+002
3.239961e+003,1.004896e+002
3.241889e+003,1.004846e+002
3.243818e+003,1.003958e+002
3.245746e+003,1.002363e+002
3.247675e+003,1.002278e+002
3.249603e+003,1.003895e+002
3.251532e+003,1.004687e+002
3.253460e+003,1.004283e+002
3.255389e+003,1.003366e+002
3.257318e+003,1.003852e+002
3.259246e+003,1.004689e+002
3.261175e+003,1.004837e+002
3.263103e+003,1.005125e+002
3.265032e+003,1.005182e+002
3.266960e+003,1.004564e+002
3.268889e+003,1.002618e+002
3.270817e+003,1.001007e+002
3.272746e+003,1.001523e+002
3.274675e+003,1.002390e+002
3.276603e+003,1.003518e+002
3.278531e+003,1.004368e+002
3.280460e+003,1.004362e+002
3.282389e+003,1.004354e+002
3.284317e+003,1.004341e+002
3.286246e+003,1.004576e+002
3.288174e+003,1.004408e+002
3.290103e+003,1.002828e+002
3.292031e+003,1.001099e+002
3.293960e+003,1.000850e+002
3.295888e+003,1.001521e+002
3.297817e+003,1.003052e+002
3.299746e+003,1.004020e+002
3.301674e+003,1.003395e+002
3.303603e+003,1.001691e+002
3.305531e+003,1.000280e+002
3.307460e+003,1.000114e+002
3.309388e+003,1.001267e+002
3.311317e+003,1.003316e+002
3.313245e+003,1.004490e+002
3.315174e+003,1.005122e+002
3.317103e+003,1.005524e+002
3.319031e+003,1.005725e+002
3.320960e+003,1.005514e+002
3.322888e+003,1.004400e+002
3.324817e+003,1.003031e+002
3.326745e+003,1.003380e+002
3.328674e+003,1.004834e+002
3.330602e+003,1.005322e+002
3.332531e+003,1.005502e+002
3.334459e+003,1.005335e+002
3.336388e+003,1.003822e+002
3.338317e+003,1.002393e+002
3.340245e+003,1.003182e+002
3.342174e+003,1.003789e+002
3.344102e+003,1.004073e+002
3.346031e+003,1.004891e+002
3.347959e+003,1.004312e+002
3.349888e+003,1.002772e+002
3.351816e+003,1.003219e+002
3.353745e+003,1.005017e+002
3.355674e+003,1.005821e+002
3.357602e+003,1.005576e+002
3.359531e+003,1.004511e+002
3.361459e+003,1.004471e+002
3.363388e+003,1.004995e+002
3.365316e+003,1.003728e+002
3.367245e+003,1.001742e+002
3.369173e+003,1.001399e+002
3.371102e+003,1.002888e+002
3.373031e+003,1.004816e+002
3.374959e+003,1.005085e+002
3.376887e+003,1.004632e+002
3.378816e+003,1.004567e+002
3.380745e+003,1.004913e+002
3.382673e+003,1.005710e+002
3.384602e+003,1.005978e+002
3.386530e+003,1.005789e+002
3.388459e+003,1.004734e+002
3.390387e+003,1.002834e+002
3.392316e+003,1.002140e+002
3.394244e+003,1.003195e+002
3.396173e+003,1.003739e+002
3.398102e+003,1.002618e+002
3.400030e+003,1.001128e+002
3.401959e+003,1.002105e+002
3.403887e+003,1.004433e+002
3.405816e+003,1.005197e+002
3.407744e+003,1.004227e+002
3.409673e+003,1.003752e+002
3.411601e+003,1.003657e+002
3.413530e+003,1.003888e+002
3.415458e+003,1.005401e+002
3.417387e+003,1.006312e+002
3.419316e+003,1.006016e+002
3.421244e+003,1.005790e+002
3.423173e+003,1.006235e+002
3.425101e+003,1.005980e+002
3.427030e+003,1.004742e+002
3.428958e+003,1.003448e+002
3.430887e+003,1.003412e+002
3.432815e+003,1.003359e+002
3.434744e+003,1.002127e+002
3.436673e+003,1.002079e+002
3.438601e+003,1.004001e+002
3.440530e+003,1.005884e+002
3.442458e+003,1.006294e+002
3.444387e+003,1.006200e+002
3.446315e+003,1.005816e+002
3.448244e+003,1.006004e+002
3.450172e+003,1.006821e+002
3.452101e+003,1.006887e+002
3.454030e+003,1.006702e+002
3.455958e+003,1.006435e+002
3.457886e+003,1.005466e+002
3.459815e+003,1.004157e+002
3.461744e+003,1.004893e+002
3.463672e+003,1.005201e+002
3.465601e+003,1.003407e+002
3.467529e+003,1.001326e+002
3.469458e+003,1.001678e+002
3.471386e+003,1.004375e+002
3.473315e+003,1.005904e+002
3.475243e+003,1.005682e+002
3.477172e+003,1.004769e+002
3.479101e+003,1.003127e+002
3.481029e+003,1.004205e+002
3.482958e+003,1.005926e+002
3.484886e+003,1.004690e+002
3.486815e+003,1.003566e+002
3.488743e+003,1.004561e+002
3.490672e+003,1.004880e+002
3.492600e+003,1.004145e+002
3.494529e+003,1.003416e+002
3.496458e+003,1.002332e+002
3.498386e+003,1.002117e+002
3.500315e+003,1.002523e+002
3.502243e+003,1.001371e+002
3.504172e+003,1.003088e+002
3.506100e+003,1.005852e+002
3.508029e+003,1.007010e+002
3.509957e+003,1.006983e+002
3.511886e+003,1.005358e+002
3.513814e+003,1.004164e+002
3.515743e+003,1.005631e+002
3.517672e+003,1.006799e+002
3.519600e+003,1.006888e+002
3.521529e+003,1.005547e+002
3.523457e+003,1.003615e+002
3.525386e+003,1.005253e+002
3.527314e+003,1.007360e+002
3.529243e+003,1.007430e+002
3.531171e+003,1.007275e+002
3.533100e+003,1.006974e+002
3.535029e+003,1.005454e+002
3.536957e+003,1.004595e+002
3.538885e+003,1.005699e+002
3.540814e+003,1.005088e+002
3.542743e+003,1.003475e+002
3.544671e+003,1.002710e+002
3.546600e+003,1.004249e+002
3.548528e+003,1.006384e+002
3.550457e+003,1.006727e+002
3.552385e+003,1.006531e+002
3.554314e+003,1.006829e+002
3.556242e+003,1.006905e+002
3.558171e+003,1.006731e+002
3.560100e+003,1.006009e+002
3.562028e+003,1.006312e+002
3.563957e+003,1.008294e+002
3.565885e+003,1.009654e+002
3.567814e+003,1.007688e+002
3.569742e+003,1.005667e+002
3.571671e+003,1.006412e+002
3.573599e+003,1.007075e+002
3.575528e+003,1.006823e+002
3.577457e+003,1.006892e+002
3.579385e+003,1.006420e+002
3.581314e+003,1.005131e+002
3.583242e+003,1.004662e+002
3.585171e+003,1.005014e+002
3.587099e+003,1.006441e+002
3.589028e+003,1.006374e+002
3.590956e+003,1.005783e+002
3.592885e+003,1.006612e+002
3.594813e+003,1.007241e+002
3.596742e+003,1.006684e+002
3.598671e+003,1.005652e+002
3.600599e+003,1.005472e+002
3.602528e+003,1.005502e+002
3.604456e+003,1.006071e+002
3.606385e+003,1.007195e+002
3.608313e+003,1.007317e+002
3.610242e+003,1.007373e+002
3.612170e+003,1.008064e+002
3.614099e+003,1.006973e+002
3.616028e+003,1.006809e+002
3.617956e+003,1.008137e+002
3.619885e+003,1.006304e+002
3.621813e+003,1.004735e+002
3.623742e+003,1.005838e+002
3.625670e+003,1.007311e+002
3.627599e+003,1.009620e+002
3.629527e+003,1.008537e+002
3.631456e+003,1.006317e+002
3.633385e+003,1.006243e+002
3.635313e+003,1.005878e+002
3.637241e+003,1.006033e+002
3.639170e+003,1.006026e+002
3.641099e+003,1.006082e+002
3.643027e+003,1.006082e+002
3.644956e+003,1.007041e+002
3.646884e+003,1.008599e+002
3.648813e+003,1.007157e+002
3.650741e+003,1.003838e+002
3.652670e+003,1.004413e+002
3.654598e+003,1.006256e+002
3.656527e+003,1.005018e+002
3.658456e+003,1.002895e+002
3.660384e+003,1.003106e+002
3.662313e+003,1.004420e+002
3.664241e+003,1.005336e+002
3.666170e+003,1.005806e+002
3.668098e+003,1.007334e+002
3.670027e+003,1.007840e+002
3.671955e+003,1.006384e+002
3.673884e+003,1.007919e+002
3.675813e+003,1.007640e+002
3.677741e+003,1.005471e+002
3.679670e+003,1.005478e+002
3.681598e+003,1.005550e+002
3.683527e+003,1.005499e+002
3.685455e+003,1.005417e+002
3.687384e+003,1.005028e+002
3.689312e+003,1.004215e+002
3.691241e+003,1.004800e+002
3.693169e+003,1.005003e+002
3.695098e+003,1.004994e+002
3.697027e+003,1.005158e+002
3.698955e+003,1.006195e+002
3.700884e+003,1.006842e+002
3.702812e+003,1.006077e+002
3.704741e+003,1.005943e+002
3.706669e+003,1.006792e+002
3.708598e+003,1.007766e+002
3.710526e+003,1.008464e+002
3.712455e+003,1.007552e+002
3.714384e+003,1.006218e+002
3.716312e+003,1.006278e+002
3.718240e+003,1.006534e+002
3.720169e+003,1.006994e+002
3.722098e+003,1.007355e+002
3.724026e+003,1.007251e+002
3.725955e+003,1.006957e+002
3.727883e+003,1.006149e+002
3.729812e+003,1.006959e+002
3.731740e+003,1.007663e+002
3.733669e+003,1.007884e+002
3.735597e+003,1.007166e+002
3.737526e+003,1.004469e+002
3.739455e+003,1.004544e+002
3.741383e+003,1.006272e+002
3.743312e+003,1.009782e+002
3.745240e+003,1.009377e+002
3.747169e+003,1.007976e+002
3.749097e+003,1.010009e+002
3.751026e+003,1.009659e+002
3.752954e+003,1.007198e+002
3.754883e+003,1.006634e+002
3.756812e+003,1.007124e+002
3.758740e+003,1.006660e+002
3.760669e+003,1.005738e+002
3.762597e+003,1.005871e+002
3.764526e+003,1.006785e+002
3.766454e+003,1.006499e+002
3.768383e+003,1.007086e+002
3.770311e+003,1.006785e+002
3.772240e+003,1.006002e+002
3.774168e+003,1.006025e+002
3.776097e+003,1.005960e+002
3.778026e+003,1.005699e+002
3.779954e+003,1.005394e+002
3.781883e+003,1.005982e+002
3.783811e+003,1.006517e+002
3.785740e+003,1.006269e+002
3.787668e+003,1.006163e+002
3.789597e+003,1.005645e+002
3.791525e+003,1.005600e+002
3.793454e+003,1.006313e+002
3.795383e+003,1.007436e+002
3.797311e+003,1.007078e+002
3.799240e+003,1.007835e+002
3.801168e+003,1.008635e+002
3.803097e+003,1.006004e+002
3.805025e+003,1.006988e+002
3.806954e+003,1.007509e+002
3.808882e+003,1.005794e+002
3.810811e+003,1.005905e+002
3.812740e+003,1.006574e+002
3.814668e+003,1.007613e+002
3.816596e+003,1.006294e+002
3.818525e+003,1.005876e+002
3.820454e+003,1.006896e+002
3.822382e+003,1.005308e+002
3.824311e+003,1.005468e+002
3.826239e+003,1.005940e+002
3.828168e+003,1.005390e+002
3.830096e+003,1.006059e+002
3.832025e+003,1.006079e+002
3.833953e+003,1.005653e+002
3.835882e+003,1.005538e+002
3.837811e+003,1.006265e+002
3.839739e+003,1.006141e+002
3.841668e+003,1.005854e+002
3.843596e+003,1.004794e+002
3.845525e+003,1.003554e+002
3.847453e+003,1.004589e+002
3.849382e+003,1.006225e+002
3.851310e+003,1.008493e+002
3.853239e+003,1.010397e+002
3.855167e+003,1.006458e+002
3.857096e+003,1.004632e+002
3.859025e+003,1.004716e+002
3.860953e+003,1.005547e+002
3.862882e+003,1.006040e+002
3.864810e+003,1.005742e+002
3.866739e+003,1.005381e+002
3.868667e+003,1.006439e+002
3.870596e+003,1.004905e+002
3.872524e+003,1.004759e+002
3.874453e+003,1.005050e+002
3.876382e+003,1.004918e+002
3.878310e+003,1.006278e+002
3.880239e+003,1.006001e+002
3.882167e+003,1.003897e+002
3.884096e+003,1.003682e+002
3.886024e+003,1.003268e+002
3.887953e+003,1.003885e+002
3.889881e+003,1.005571e+002
3.891810e+003,1.004836e+002
3.893739e+003,1.003869e+002
3.895667e+003,1.004768e+002
3.897595e+003,1.005969e+002
3.899524e+003,1.005998e+002
3.901453e+003,1.005928e+002
3.903381e+003,1.006107e+002
3.905310e+003,1.004444e+002
3.907238e+003,1.003495e+002
3.909167e+003,1.003769e+002
3.911095e+003,1.004145e+002
3.913024e+003,1.004365e+002
3.914952e+003,1.004715e+002
3.916881e+003,1.004274e+002
3.918810e+003,1.003983e+002
3.920738e+003,1.004442e+002
3.922667e+003,1.004714e+002
3.924595e+003,1.004317e+002
3.926524e+003,1.004054e+002
3.928452e+003,1.004682e+002
3.930381e+003,1.004704e+002
3.932309e+003,1.004090e+002
3.934238e+003,1.003271e+002
3.936167e+003,1.003505e+002
3.938095e+003,1.004088e+002
3.940024e+003,1.004350e+002
3.941952e+003,1.004271e+002
3.943881e+003,1.003608e+002
3.945809e+003,1.003716e+002
3.947738e+003,1.003908e+002
3.949666e+003,1.003536e+002
3.951595e+003,1.003642e+002
3.953523e+003,1.003840e+002
3.955452e+003,1.003740e+002
3.957380e+003,1.003435e+002
3.959309e+003,1.003497e+002
3.961238e+003,1.003734e+002
3.963166e+003,1.003846e+002
3.965095e+003,1.004058e+002
3.967023e+003,1.004184e+002
3.968952e+003,1.003882e+002
3.970880e+003,1.003758e+002
3.972809e+003,1.003729e+002
3.974737e+003,1.003358e+002
3.976666e+003,1.003031e+002
3.978594e+003,1.003123e+002
3.980523e+003,1.003396e+002
3.982452e+003,1.003116e+002
3.984380e+003,1.002804e+002
3.986309e+003,1.003004e+002
3.988237e+003,1.003166e+002
3.990166e+003,1.003110e+002
3.992094e+003,1.003132e+002
3.994023e+003,1.003466e+002
3.995951e+003,1.003364e+002
3.997880e+003,1.003088e+002
3.999809e+003,1.003071e+002
4.001737e+003,0.000000e+000
