3.992094e+002,0.000000e+000
4.011380e+002,0.000000e+000
4.030665e+002,0.000000e+000
4.049951e+002,0.000000e+000
4.069236e+002,0.000000e+000
4.088522e+002,0.000000e+000
4.107807e+002,0.000000e+000
4.127093e+002,0.000000e+000
4.146378e+002,0.000000e+000
4.165664e+002,0.000000e+000
4.184949e+002,0.000000e+000
4.204235e+002,0.000000e+000
4.223520e+002,0.000000e+000
4.242806e+002,0.000000e+000
4.262091e+002,0.000000e+000
4.281377e+002,0.000000e+000
4.300662e+002,0.000000e+000
4.319948e+002,0.000000e+000
4.339233e+002,0.000000e+000
4.358519e+002,0.000000e+000
4.377804e+002,0.000000e+000
4.397090e+002,0.000000e+000
4.416375e+002,0.000000e+000
4.435660e+002,0.000000e+000
4.454946e+002,0.000000e+000
4.474232e+002,0.000000e+000
4.493517e+002,0.000000e+000
4.512802e+002,0.000000e+000
4.532088e+002,0.000000e+000
4.551373e+002,0.000000e+000
4.570659e+002,0.000000e+000
4.589944e+002,0.000000e+000
4.609230e+002,0.000000e+000
4.628515e+002,0.000000e+000
4.647801e+002,0.000000e+000
4.667086e+002,0.000000e+000
4.686372e+002,0.000000e+000
4.705657e+002,0.000000e+000
4.724943e+002,0.000000e+000
4.744228e+002,0.000000e+000
4.763514e+002,0.000000e+000
4.782799e+002,0.000000e+000
4.802085e+002,0.000000e+000
4.821370e+002,0.000000e+000
4.840656e+002,0.000000e+000
4.859941e+002,0.000000e+000
4.879226e+002,0.000000e+000
4.898512e+002,0.000000e+000
4.917798e+002,0.000000e+000
4.937083e+002,0.000000e+000
4.956368e+002,0.000000e+000
4.975654e+002,0.000000e+000
4.994939e+002,0.000000e+000
5.014225e+002,0.000000e+000
5.033510e+002,0.000000e+000
5.052796e+002,0.000000e+000
5.072081e+002,0.000000e+000
5.091367e+002,0.000000e+000
5.110652e+002,0.000000e+000
5.129938e+002,0.000000e+000
5.149223e+002,0.000000e+000
5.168509e+002,0.000000e+000
5.187794e+002,0.000000e+000
5.207079e+002,0.000000e+000
5.226365e+002,0.000000e+000
5.245651e+002,0.000000e+000
5.264936e+002,0.000000e+000
5.284221e+002,0.000000e+000
5.303507e+002,0.000000e+000
5.322792e+002,0.000000e+000
5.342078e+002,0.000000e+000
5.361364e+002,0.000000e+000
5.380649e+002,0.000000e+000
5.399934e+002,0.000000e+000
5.419220e+002,0.000000e+000
5.438505e+002,0.000000e+000
5.457791e+002,0.000000e+000
5.477076e+002,0.000000e+000
5.496362e+002,0.000000e+000
5.515647e+002,0.000000e+000
5.534933e+002,0.000000e+000
5.554218e+002,0.000000e+000
5.573503e+002,0.000000e+000
5.592789e+002,0.000000e+000
5.612075e+002,0.000000e+000
5.631360e+002,0.000000e+000
5.650646e+002,0.000000e+000
5.669931e+002,0.000000e+000
5.689216e+002,0.000000e+000
5.708502e+002,0.000000e+000
5.727787e+002,0.000000e+000
5.747073e+002,0.000000e+000
5.766359e+002,0.000000e+000
5.785644e+002,0.000000e+000
5.804929e+002,0.000000e+000
5.824215e+002,0.000000e+000
5.843500e+002,0.000000e+000
5.862786e+002,0.000000e+000
5.882072e+002,0.000000e+000
5.901357e+002,0.000000e+000
5.920642e+002,0.000000e+000
5.939928e+002,0.000000e+000
5.959213e+002,0.000000e+000
5.978499e+002,0.000000e+000
5.997784e+002,0.000000e+000
6.017070e+002,0.000000e+000
6.036355e+002,0.000000e+000
6.055641e+002,0.000000e+000
6.074926e+002,0.000000e+000
6.094211e+002,0.000000e+000
6.113497e+002,0.000000e+000
6.132783e+002,0.000000e+000
6.152068e+002,0.000000e+000
6.171354e+002,0.000000e+000
6.190639e+002,0.000000e+000
6.209924e+002,0.000000e+000
6.229210e+002,0.000000e+000
6.248495e+002,0.000000e+000
6.267781e+002,0.000000e+000
6.287067e+002,0.000000e+000
6.306352e+002,0.000000e+000
6.325637e+002,0.000000e+000
6.344923e+002,0.000000e+000
6.364208e+002,0.000000e+000
6.383494e+002,0.000000e+000
6.402780e+002,0.000000e+000
6.422065e+002,0.000000e+000
6.441350e+002,0.000000e+000
6.460636e+002,0.000000e+000
6.479921e+002,0.000000e+000
6.499207e+002,0.000000e+000
6.518492e+002,0.000000e+000
6.537778e+002,0.000000e+000
6.557063e+002,0.000000e+000
6.576349e+002,0.000000e+000
6.595634e+002,0.000000e+000
6.614919e+002,0.000000e+000
6.634205e+002,0.000000e+000
6.653491e+002,0.000000e+000
6.672776e+002,0.000000e+000
6.692062e+002,0.000000e+000
6.711347e+002,0.000000e+000
6.730632e+002,0.000000e+000
6.749918e+002,8.911837e+001
6.769203e+002,8.921359e+001
6.788489e+002,8.936613e+001
6.807775e+002,8.927034e+001
6.827060e+002,8.901816e+001
6.846345e+002,8.896643e+001
6.865631e+002,8.908915e+001
6.884916e+002,8.906493e+001
6.904202e+002,8.902071e+001
6.923488e+002,8.915478e+001
6.942773e+002,8.913828e+001
6.962058e+002,8.896581e+001
6.981344e+002,8.881120e+001
7.000629e+002,8.878194e+001
7.019915e+002,8.886129e+001
7.039200e+002,8.890976e+001
7.058486e+002,8.887980e+001
7.077771e+002,8.893431e+001
7.097057e+002,8.906347e+001
7.116342e+002,8.926303e+001
7.135627e+002,8.947208e+001
7.154913e+002,8.977300e+001
7.174199e+002,9.019205e+001
7.193484e+002,9.062065e+001
7.212770e+002,9.121410e+001
7.232055e+002,9.187621e+001
7.251340e+002,9.231770e+001
7.270626e+002,9.248227e+001
7.289911e+002,9.236594e+001
7.309197e+002,9.197160e+001
7.328483e+002,9.131251e+001
7.347768e+002,9.041201e+001
7.367053e+002,8.956647e+001
7.386339e+002,8.888357e+001
7.405624e+002,8.826802e+001
7.424910e+002,8.784422e+001
7.444196e+002,8.758715e+001
7.463481e+002,8.730645e+001
7.482766e+002,8.692572e+001
7.502052e+002,8.649153e+001
7.521337e+002,8.609233e+001
7.540623e+002,8.585922e+001
7.559908e+002,8.585592e+001
7.579194e+002,8.614771e+001
7.598479e+002,8.673770e+001
7.617765e+002,8.755656e+001
7.637050e+002,8.838226e+001
7.656335e+002,8.912837e+001
7.675621e+002,8.978559e+001
7.694907e+002,9.036501e+001
7.714192e+002,9.080757e+001
7.733478e+002,9.121510e+001
7.752763e+002,9.158767e+001
7.772048e+002,9.187975e+001
7.791334e+002,9.220978e+001
7.810620e+002,9.263067e+001
7.829905e+002,9.305970e+001
7.849191e+002,9.344728e+001
7.868476e+002,9.381075e+001
7.887761e+002,9.419061e+001
7.907047e+002,9.455703e+001
7.926332e+002,9.483339e+001
7.945618e+002,9.501196e+001
7.964904e+002,9.516499e+001
7.984189e+002,9.532676e+001
8.003474e+002,9.539130e+001
8.022760e+002,9.540773e+001
8.042045e+002,9.543514e+001
8.061331e+002,9.551083e+001
8.080616e+002,9.556091e+001
8.099902e+002,9.557600e+001
8.119187e+002,9.555095e+001
8.138473e+002,9.556060e+001
8.157758e+002,9.555096e+001
8.177043e+002,9.553274e+001
8.196329e+002,9.554366e+001
8.215615e+002,9.556493e+001
8.234900e+002,9.555714e+001
8.254186e+002,9.552863e+001
8.273471e+002,9.549332e+001
8.292756e+002,9.547818e+001
8.312042e+002,9.544902e+001
8.331328e+002,9.537350e+001
8.350613e+002,9.517554e+001
8.369899e+002,9.494501e+001
8.389184e+002,9.472238e+001
8.408469e+002,9.441927e+001
8.427755e+002,9.392834e+001
8.447040e+002,9.330817e+001
8.466326e+002,9.271195e+001
8.485612e+002,9.225577e+001
8.504896e+002,9.184674e+001
8.524182e+002,9.139613e+001
8.543468e+002,9.082550e+001
8.562753e+002,9.005749e+001
8.582039e+002,8.916470e+001
8.601324e+002,8.836037e+001
8.620609e+002,8.781042e+001
8.639895e+002,8.747282e+001
8.659181e+002,8.727069e+001
8.678466e+002,8.718437e+001
8.697751e+002,8.724898e+001
8.717037e+002,8.752016e+001
8.736322e+002,8.813200e+001
8.755608e+002,8.909203e+001
8.774894e+002,9.029077e+001
8.794178e+002,9.152323e+001
8.813464e+002,9.260303e+001
8.832750e+002,9.341647e+001
8.852035e+002,9.390746e+001
8.871321e+002,9.407314e+001
8.890607e+002,9.398691e+001
8.909891e+002,9.383660e+001
8.929177e+002,9.374228e+001
8.948463e+002,9.371291e+001
8.967748e+002,9.370891e+001
8.987034e+002,9.374898e+001
9.006320e+002,9.381212e+001
9.025604e+002,9.388825e+001
9.044890e+002,9.395301e+001
9.064176e+002,9.397734e+001
9.083461e+002,9.398706e+001
9.102747e+002,9.398377e+001
9.122032e+002,9.395481e+001
9.141317e+002,9.393233e+001
9.160603e+002,9.390437e+001
9.179889e+002,9.386437e+001
9.199174e+002,9.381870e+001
9.218459e+002,9.379734e+001
9.237745e+002,9.379958e+001
9.257030e+002,9.380791e+001
9.276316e+002,9.384007e+001
9.295602e+002,9.387653e+001
9.314886e+002,9.392319e+001
9.334172e+002,9.400971e+001
9.353458e+002,9.409710e+001
9.372743e+002,9.411502e+001
9.392029e+002,9.409865e+001
9.411315e+002,9.405643e+001
9.430599e+002,9.399471e+001
9.449885e+002,9.386954e+001
9.469171e+002,9.368037e+001
9.488456e+002,9.345871e+001
9.507742e+002,9.320050e+001
9.527028e+002,9.295875e+001
9.546312e+002,9.277240e+001
9.565598e+002,9.272721e+001
9.584884e+002,9.292929e+001
9.604169e+002,9.337248e+001
9.623455e+002,9.387585e+001
9.642740e+002,9.424982e+001
9.662025e+002,9.445488e+001
9.681311e+002,9.454721e+001
9.700597e+002,9.453780e+001
9.719882e+002,9.447217e+001
9.739167e+002,9.435764e+001
9.758453e+002,9.422268e+001
9.777738e+002,9.409904e+001
9.797024e+002,9.395676e+001
9.816310e+002,9.379531e+001
9.835594e+002,9.363273e+001
9.854880e+002,9.345076e+001
9.874166e+002,9.325920e+001
9.893451e+002,9.305736e+001
9.912737e+002,9.283758e+001
9.932023e+002,9.260298e+001
9.951307e+002,9.236191e+001
9.970593e+002,9.209265e+001
9.989879e+002,9.178030e+001
1.000916e+003,9.142884e+001
1.002845e+003,9.105183e+001
1.004774e+003,9.062841e+001
1.006702e+003,9.011474e+001
1.008631e+003,8.950083e+001
1.010559e+003,8.877185e+001
1.012488e+003,8.789758e+001
1.014416e+003,8.683233e+001
1.016345e+003,8.557320e+001
1.018273e+003,8.420052e+001
1.020202e+003,8.278344e+001
1.022130e+003,8.138271e+001
1.024059e+003,8.009878e+001
1.025988e+003,7.898183e+001
1.027916e+003,7.794975e+001
1.029845e+003,7.681295e+001
1.031773e+003,7.546872e+001
1.033702e+003,7.381188e+001
1.035630e+003,7.194387e+001
1.037559e+003,7.002501e+001
1.039487e+003,6.830885e+001
1.041416e+003,6.695937e+001
1.043344e+003,6.616470e+001
1.045273e+003,6.597719e+001
1.047202e+003,6.635741e+001
1.049130e+003,6.714178e+001
1.051059e+003,6.818802e+001
1.052987e+003,6.930086e+001
1.054916e+003,7.041272e+001
1.056844e+003,7.145196e+001
1.058773e+003,7.231673e+001
1.060701e+003,7.276783e+001
1.062630e+003,7.256295e+001
1.064558e+003,7.142706e+001
1.066487e+003,6.936896e+001
1.068416e+003,6.658486e+001
1.070344e+003,6.327954e+001
1.072273e+003,5.955623e+001
1.074201e+003,5.567233e+001
1.076130e+003,5.179549e+001
1.078058e+003,4.821212e+001
1.079987e+003,4.514013e+001
1.081915e+003,4.285255e+001
1.083844e+003,4.151755e+001
1.085773e+003,4.129157e+001
1.087701e+003,4.202086e+001
1.089630e+003,4.349648e+001
1.091558e+003,4.538188e+001
1.093487e+003,4.752485e+001
1.095415e+003,4.980118e+001
1.097344e+003,5.219062e+001
1.099272e+003,5.463067e+001
1.101201e+003,5.714965e+001
1.103129e+003,5.971296e+001
1.105058e+003,6.227395e+001
1.106987e+003,6.467645e+001
1.108915e+003,6.680342e+001
1.110844e+003,6.844775e+001
1.112772e+003,6.950323e+001
1.114701e+003,6.992059e+001
1.116629e+003,6.979984e+001
1.118558e+003,6.925668e+001
1.120486e+003,6.834587e+001
1.122415e+003,6.711359e+001
1.124344e+003,6.572149e+001
1.126272e+003,6.450949e+001
1.128201e+003,6.396564e+001
1.130129e+003,6.429362e+001
1.132058e+003,6.538764e+001
1.133986e+003,6.707271e+001
1.135915e+003,6.931244e+001
1.137843e+003,7.205526e+001
1.139772e+003,7.519625e+001
1.141700e+003,7.851093e+001
1.143629e+003,8.170617e+001
1.145557e+003,8.449902e+001
1.147486e+003,8.672398e+001
1.149415e+003,8.834677e+001
1.151343e+003,8.939386e+001
1.153272e+003,8.998302e+001
1.155200e+003,9.022624e+001
1.157129e+003,9.016518e+001
1.159057e+003,8.985056e+001
1.160986e+003,8.925654e+001
1.162914e+003,8.830734e+001
1.164843e+003,8.693977e+001
1.166771e+003,8.506038e+001
1.168700e+003,8.250610e+001
1.170629e+003,7.915343e+001
1.172557e+003,7.483206e+001
1.174486e+003,6.952608e+001
1.176414e+003,6.362431e+001
1.178343e+003,5.813100e+001
1.180271e+003,5.430737e+001
1.182200e+003,5.295661e+001
1.184128e+003,5.384103e+001
1.186057e+003,5.613253e+001
1.187986e+003,5.897716e+001
1.189914e+003,6.178589e+001
1.191843e+003,6.429396e+001
1.193771e+003,6.640172e+001
1.195700e+003,6.805546e+001
1.197628e+003,6.930443e+001
1.199557e+003,7.019964e+001
1.201485e+003,7.079169e+001
1.203414e+003,7.117742e+001
1.205343e+003,7.143238e+001
1.207271e+003,7.166555e+001
1.209200e+003,7.201395e+001
1.211128e+003,7.255065e+001
1.213057e+003,7.332774e+001
1.214985e+003,7.434834e+001
1.216914e+003,7.555276e+001
1.218842e+003,7.687193e+001
1.220771e+003,7.825319e+001
1.222699e+003,7.961690e+001
1.224628e+003,8.090815e+001
1.226557e+003,8.210682e+001
1.228485e+003,8.319868e+001
1.230414e+003,8.416739e+001
1.232342e+003,8.499442e+001
1.234271e+003,8.567899e+001
1.236199e+003,8.622305e+001
1.238128e+003,8.666658e+001
1.240056e+003,8.703622e+001
1.241985e+003,8.731552e+001
1.243913e+003,8.751539e+001
1.245842e+003,8.763656e+001
1.247771e+003,8.767417e+001
1.249699e+003,8.763527e+001
1.251628e+003,8.749778e+001
1.253556e+003,8.726682e+001
1.255485e+003,8.695968e+001
1.257413e+003,8.659810e+001
1.259342e+003,8.620215e+001
1.261270e+003,8.582332e+001
1.263199e+003,8.555166e+001
1.265127e+003,8.541468e+001
1.267056e+003,8.543934e+001
1.268985e+003,8.565519e+001
1.270913e+003,8.604081e+001
1.272842e+003,8.658601e+001
1.274770e+003,8.728205e+001
1.276699e+003,8.812890e+001
1.278627e+003,8.907512e+001
1.280556e+003,9.004821e+001
1.282484e+003,9.101534e+001
1.284413e+003,9.190816e+001
1.286342e+003,9.262699e+001
1.288270e+003,9.312127e+001
1.290199e+003,9.335181e+001
1.292127e+003,9.333347e+001
1.294056e+003,9.313566e+001
1.295984e+003,9.284104e+001
1.297913e+003,9.255145e+001
1.299841e+003,9.234231e+001
1.301770e+003,9.219501e+001
1.303698e+003,9.208223e+001
1.305627e+003,9.199536e+001
1.307556e+003,9.194811e+001
1.309484e+003,9.194520e+001
1.311413e+003,9.197382e+001
1.313341e+003,9.201392e+001
1.315270e+003,9.206898e+001
1.317198e+003,9.212745e+001
1.319127e+003,9.219008e+001
1.321055e+003,9.227003e+001
1.322984e+003,9.234854e+001
1.324912e+003,9.241589e+001
1.326841e+003,9.245580e+001
1.328770e+003,9.243246e+001
1.330698e+003,9.235806e+001
1.332627e+003,9.223689e+001
1.334555e+003,9.205161e+001
1.336484e+003,9.177798e+001
1.338412e+003,9.144895e+001
1.340341e+003,9.104725e+001
1.342269e+003,9.061949e+001
1.344198e+003,9.011929e+001
1.346126e+003,8.950320e+001
1.348055e+003,8.879764e+001
1.349984e+003,8.802898e+001
1.351912e+003,8.725050e+001
1.353841e+003,8.653303e+001
1.355769e+003,8.592403e+001
1.357698e+003,8.552147e+001
1.359626e+003,8.533870e+001
1.361555e+003,8.535072e+001
1.363483e+003,8.546494e+001
1.365412e+003,8.567760e+001
1.367341e+003,8.599165e+001
1.369269e+003,8.653277e+001
1.371198e+003,8.721101e+001
1.373126e+003,8.780022e+001
1.375055e+003,8.785293e+001
1.376983e+003,8.722473e+001
1.378912e+003,8.627111e+001
1.380840e+003,8.557365e+001
1.382769e+003,8.545869e+001
1.384698e+003,8.597910e+001
1.386626e+003,8.704146e+001
1.388555e+003,8.854264e+001
1.390483e+003,8.992232e+001
1.392412e+003,9.122900e+001
1.394340e+003,9.253622e+001
1.396269e+003,9.371151e+001
1.398197e+003,9.440518e+001
1.400126e+003,9.488158e+001
1.402054e+003,9.515205e+001
1.403983e+003,9.528338e+001
1.405911e+003,9.530336e+001
1.407840e+003,9.528720e+001
1.409769e+003,9.521684e+001
1.411697e+003,9.509654e+001
1.413626e+003,9.495730e+001
1.415554e+003,9.484345e+001
1.417483e+003,9.472260e+001
1.419411e+003,9.456336e+001
1.421340e+003,9.450797e+001
1.423268e+003,9.450439e+001
1.425197e+003,9.448696e+001
1.427125e+003,9.453109e+001
1.429054e+003,9.452699e+001
1.430983e+003,9.445194e+001
1.432911e+003,9.433368e+001
1.434840e+003,9.412302e+001
1.436768e+003,9.338552e+001
1.438697e+003,9.224449e+001
1.440625e+003,9.092801e+001
1.442554e+003,8.916045e+001
1.444482e+003,8.734304e+001
1.446411e+003,8.584116e+001
1.448340e+003,8.455995e+001
1.450268e+003,8.385947e+001
1.452197e+003,8.357853e+001
1.454125e+003,8.366412e+001
1.456054e+003,8.409911e+001
1.457982e+003,8.543127e+001
1.459911e+003,8.679584e+001
1.461839e+003,8.812962e+001
1.463768e+003,8.958824e+001
1.465697e+003,9.137093e+001
1.467625e+003,9.271695e+001
1.469554e+003,9.371835e+001
1.471482e+003,9.452653e+001
1.473411e+003,9.529642e+001
1.475339e+003,9.576184e+001
1.477268e+003,9.613526e+001
1.479196e+003,9.641196e+001
1.481125e+003,9.664001e+001
1.483053e+003,9.683298e+001
1.484982e+003,9.702521e+001
1.486911e+003,9.718066e+001
1.488839e+003,9.731139e+001
1.490768e+003,9.743594e+001
1.492696e+003,9.761171e+001
1.494625e+003,9.772615e+001
1.496553e+003,9.780208e+001
1.498482e+003,9.784653e+001
1.500410e+003,9.790350e+001
1.502339e+003,9.799138e+001
1.504267e+003,9.809497e+001
1.506196e+003,9.810826e+001
1.508125e+003,9.801921e+001
1.510053e+003,9.804231e+001
1.511982e+003,9.807297e+001
1.513910e+003,9.806896e+001
1.515839e+003,9.803918e+001
1.517767e+003,9.798118e+001
1.519696e+003,9.801328e+001
1.521624e+003,9.798634e+001
1.523553e+003,9.793698e+001
1.525481e+003,9.792232e+001
1.527410e+003,9.784569e+001
1.529339e+003,9.778212e+001
1.531267e+003,9.777441e+001
1.533196e+003,9.770678e+001
1.535124e+003,9.760567e+001
1.537053e+003,9.761076e+001
1.538981e+003,9.761282e+001
1.540910e+003,9.753094e+001
1.542838e+003,9.747932e+001
1.544767e+003,9.743000e+001
1.546696e+003,9.736366e+001
1.548624e+003,9.731345e+001
1.550553e+003,9.719743e+001
1.552481e+003,9.709978e+001
1.554410e+003,9.697980e+001
1.556338e+003,9.688027e+001
1.558267e+003,9.674331e+001
1.560195e+003,9.625307e+001
1.562124e+003,9.609604e+001
1.564052e+003,9.592289e+001
1.565981e+003,9.564231e+001
1.567910e+003,9.540226e+001
1.569838e+003,9.491766e+001
1.571767e+003,9.445437e+001
1.573695e+003,9.417473e+001
1.575624e+003,9.376160e+001
1.577552e+003,9.318834e+001
1.579481e+003,9.291612e+001
1.581409e+003,9.266573e+001
1.583338e+003,9.241342e+001
1.585266e+003,9.220010e+001
1.587195e+003,9.204830e+001
1.589124e+003,9.191789e+001
1.591052e+003,9.183689e+001
1.592981e+003,9.178567e+001
1.594909e+003,9.176619e+001
1.596838e+003,9.178825e+001
1.598766e+003,9.188711e+001
1.600695e+003,9.199354e+001
1.602623e+003,9.210281e+001
1.604552e+003,9.223966e+001
1.606480e+003,9.240307e+001
1.608409e+003,9.254707e+001
1.610338e+003,9.269631e+001
1.612266e+003,9.286786e+001
1.614195e+003,9.301888e+001
1.616123e+003,9.313912e+001
1.618052e+003,9.329302e+001
1.619980e+003,9.347148e+001
1.621909e+003,9.362360e+001
1.623837e+003,9.375208e+001
1.625766e+003,9.390516e+001
1.627695e+003,9.405396e+001
1.629623e+003,9.419848e+001
1.631552e+003,9.437137e+001
1.633480e+003,9.454448e+001
1.635409e+003,9.465986e+001
1.637337e+003,9.474010e+001
1.639266e+003,9.493205e+001
1.641194e+003,9.511633e+001
1.643123e+003,9.525777e+001
1.645052e+003,9.536164e+001
1.646980e+003,9.543958e+001
1.648909e+003,9.556258e+001
1.650837e+003,9.572180e+001
1.652766e+003,9.577253e+001
1.654694e+003,9.568613e+001
1.656623e+003,9.575436e+001
1.658551e+003,9.580744e+001
1.660480e+003,9.581938e+001
1.662408e+003,9.578403e+001
1.664337e+003,9.572393e+001
1.666266e+003,9.573745e+001
1.668194e+003,9.570409e+001
1.670123e+003,9.560501e+001
1.672051e+003,9.558134e+001
1.673980e+003,9.561919e+001
1.675908e+003,9.558954e+001
1.677837e+003,9.561141e+001
1.679765e+003,9.565240e+001
1.681694e+003,9.571291e+001
1.683622e+003,9.578576e+001
1.685551e+003,9.582228e+001
1.687479e+003,9.588848e+001
1.689408e+003,9.594463e+001
1.691337e+003,9.599199e+001
1.693265e+003,9.605602e+001
1.695194e+003,9.605549e+001
1.697122e+003,9.593892e+001
1.699051e+003,9.586496e+001
1.700979e+003,9.554513e+001
1.702908e+003,9.535358e+001
1.704836e+003,9.515842e+001
1.706765e+003,9.474218e+001
1.708694e+003,9.436703e+001
1.710622e+003,9.396629e+001
1.712551e+003,9.354659e+001
1.714479e+003,9.307470e+001
1.716408e+003,9.243782e+001
1.718336e+003,9.157741e+001
1.720265e+003,9.093300e+001
1.722193e+003,9.041777e+001
1.724122e+003,8.961881e+001
1.726051e+003,8.867319e+001
1.727979e+003,8.754439e+001
1.729908e+003,8.594204e+001
1.731836e+003,8.413817e+001
1.733765e+003,8.130936e+001
1.735693e+003,7.690907e+001
1.737622e+003,7.397504e+001
1.739550e+003,6.957276e+001
1.741479e+003,6.467065e+001
1.743407e+003,6.047981e+001
1.745336e+003,5.691940e+001
1.747265e+003,5.434939e+001
1.749193e+003,5.281083e+001
1.751122e+003,5.217215e+001
1.753050e+003,5.270755e+001
1.754979e+003,5.381821e+001
1.756907e+003,5.630900e+001
1.758836e+003,5.942202e+001
1.760764e+003,6.281713e+001
1.762693e+003,6.706387e+001
1.764621e+003,7.062532e+001
1.766550e+003,7.345625e+001
1.768479e+003,7.634766e+001
1.770407e+003,7.853159e+001
1.772336e+003,8.074860e+001
1.774264e+003,8.278130e+001
1.776193e+003,8.443721e+001
1.778121e+003,8.614217e+001
1.780050e+003,8.796100e+001
1.781978e+003,8.985821e+001
1.783907e+003,9.152954e+001
1.785835e+003,9.315234e+001
1.787764e+003,9.447044e+001
1.789693e+003,9.544173e+001
1.791621e+003,9.625111e+001
1.793550e+003,9.691878e+001
1.795478e+003,9.734833e+001
1.797407e+003,9.768151e+001
1.799335e+003,9.792249e+001
1.801264e+003,9.812550e+001
1.803192e+003,9.830605e+001
1.805121e+003,9.844731e+001
1.807049e+003,9.856127e+001
1.808978e+003,9.867194e+001
1.810907e+003,9.876094e+001
1.812835e+003,9.882927e+001
1.814764e+003,9.890746e+001
1.816692e+003,9.898573e+001
1.818621e+003,9.904253e+001
1.820549e+003,9.911375e+001
1.822478e+003,9.918697e+001
1.824406e+003,9.923632e+001
1.826335e+003,9.928542e+001
1.828264e+003,9.937942e+001
1.830192e+003,9.941995e+001
1.832121e+003,9.947151e+001
1.834049e+003,9.954514e+001
1.835978e+003,9.961135e+001
1.837906e+003,9.966010e+001
1.839835e+003,9.972366e+001
1.841763e+003,9.978860e+001
1.843692e+003,9.982198e+001
1.845620e+003,9.983222e+001
1.847549e+003,9.988268e+001
1.849478e+003,9.991985e+001
1.851406e+003,9.995654e+001
1.853335e+003,9.998854e+001
1.855263e+003,1.000189e+002
1.857192e+003,1.000312e+002
1.859120e+003,1.000550e+002
1.861049e+003,1.000733e+002
1.862977e+003,1.000957e+002
1.864906e+003,1.001313e+002
1.866834e+003,1.001824e+002
1.868763e+003,1.001752e+002
1.870692e+003,1.001560e+002
1.872620e+003,1.001745e+002
1.874549e+003,1.002003e+002
1.876477e+003,1.002068e+002
1.878406e+003,1.002106e+002
1.880334e+003,1.002333e+002
1.882263e+003,1.002605e+002
1.884191e+003,1.002590e+002
1.886120e+003,1.002774e+002
1.888048e+003,1.002975e+002
1.889977e+003,1.002880e+002
1.891906e+003,1.003000e+002
1.893834e+003,1.003296e+002
1.895763e+003,1.003247e+002
1.897691e+003,1.003422e+002
1.899620e+003,1.003476e+002
1.901548e+003,1.003537e+002
1.903477e+003,1.003635e+002
1.905405e+003,1.003810e+002
1.907334e+003,1.003942e+002
1.909263e+003,1.003912e+002
1.911191e+003,1.003809e+002
1.913120e+003,1.004043e+002
1.915048e+003,1.004300e+002
1.916977e+003,1.004456e+002
1.918905e+003,1.004286e+002
1.920834e+003,1.004631e+002
1.922762e+003,1.004805e+002
1.924691e+003,1.004845e+002
1.926620e+003,1.005077e+002
1.928548e+003,1.005280e+002
1.930477e+003,1.005385e+002
1.932405e+003,1.005410e+002
1.934334e+003,1.005363e+002
1.936262e+003,1.005391e+002
1.938191e+003,1.005436e+002
1.940119e+003,1.005659e+002
1.942048e+003,1.005590e+002
1.943976e+003,1.005346e+002
1.945905e+003,1.005423e+002
1.947833e+003,1.005443e+002
1.949762e+003,1.005319e+002
1.951691e+003,1.005288e+002
1.953619e+003,1.005142e+002
1.955548e+003,1.005080e+002
1.957476e+003,1.005236e+002
1.959405e+003,1.005241e+002
1.961333e+003,1.005133e+002
1.963262e+003,1.005091e+002
1.965190e+003,1.005165e+002
1.967119e+003,1.005103e+002
1.969047e+003,1.005031e+002
1.970976e+003,1.005030e+002
1.972905e+003,1.005040e+002
1.974833e+003,1.005080e+002
1.976762e+003,1.005152e+002
1.978690e+003,1.005263e+002
1.980619e+003,1.005321e+002
1.982547e+003,1.005461e+002
1.984476e+003,1.005489e+002
1.986404e+003,1.005550e+002
1.988333e+003,1.005555e+002
1.990262e+003,1.005507e+002
1.992190e+003,1.005415e+002
1.994119e+003,1.005451e+002
1.996047e+003,1.005531e+002
1.997976e+003,1.005752e+002
1.999904e+003,1.005816e+002
2.001833e+003,1.005658e+002
2.003761e+003,1.005629e+002
2.005690e+003,1.005772e+002
2.007619e+003,1.005828e+002
2.009547e+003,1.005920e+002
2.011476e+003,1.006059e+002
2.013404e+003,1.006191e+002
2.015333e+003,1.006212e+002
2.017261e+003,1.006246e+002
2.019190e+003,1.006365e+002
2.021118e+003,1.006475e+002
2.023047e+003,1.006497e+002
2.024975e+003,1.006539e+002
2.026904e+003,1.006580e+002
2.028833e+003,1.006641e+002
2.030761e+003,1.006734e+002
2.032690e+003,1.006794e+002
2.034618e+003,1.006712e+002
2.036547e+003,1.006794e+002
2.038475e+003,1.006884e+002
2.040404e+003,1.006819e+002
2.042332e+003,1.006727e+002
2.044261e+003,1.006663e+002
2.046189e+003,1.006524e+002
2.048118e+003,1.006569e+002
2.050046e+003,1.006645e+002
2.051975e+003,1.006608e+002
2.053904e+003,1.006501e+002
2.055832e+003,1.006541e+002
2.057761e+003,1.006534e+002
2.059689e+003,1.006506e+002
2.061618e+003,1.006481e+002
2.063546e+003,1.006716e+002
2.065475e+003,1.006787e+002
2.067403e+003,1.006742e+002
2.069332e+003,1.006655e+002
2.071260e+003,1.006605e+002
2.073189e+003,1.006612e+002
2.075118e+003,1.006753e+002
2.077046e+003,1.006808e+002
2.078975e+003,1.006805e+002
2.080903e+003,1.006844e+002
2.082832e+003,1.006827e+002
2.084760e+003,1.006854e+002
2.086689e+003,1.006992e+002
2.088617e+003,1.007027e+002
2.090546e+003,1.007147e+002
2.092475e+003,1.007370e+002
2.094403e+003,1.007455e+002
2.096332e+003,1.007353e+002
2.098260e+003,1.007345e+002
2.100189e+003,1.007436e+002
2.102117e+003,1.007507e+002
2.104046e+003,1.007589e+002
2.105974e+003,1.007899e+002
2.107903e+003,1.007883e+002
2.109832e+003,1.007793e+002
2.111760e+003,1.007945e+002
2.113688e+003,1.008111e+002
2.115617e+003,1.008036e+002
2.117546e+003,1.007989e+002
2.119474e+003,1.008016e+002
2.121403e+003,1.007997e+002
2.123331e+003,1.008047e+002
2.125260e+003,1.008244e+002
2.127188e+003,1.008365e+002
2.129117e+003,1.008471e+002
2.131045e+003,1.008601e+002
2.132974e+003,1.008731e+002
2.134903e+003,1.008855e+002
2.136831e+003,1.009022e+002
2.138760e+003,1.009169e+002
2.140688e+003,1.009396e+002
2.142617e+003,1.009540e+002
2.144545e+003,1.009730e+002
2.146474e+003,1.009903e+002
2.148402e+003,1.010138e+002
2.150331e+003,1.010400e+002
2.152260e+003,1.010610e+002
2.154188e+003,1.010790e+002
2.156117e+003,1.010867e+002
2.158045e+003,1.011019e+002
2.159974e+003,1.011266e+002
2.161902e+003,1.011383e+002
2.163831e+003,1.011293e+002
2.165759e+003,1.011288e+002
2.167688e+003,1.011425e+002
2.169616e+003,1.011393e+002
2.171545e+003,1.011231e+002
2.173474e+003,1.011242e+002
2.175402e+003,1.011411e+002
2.177331e+003,1.011334e+002
2.179259e+003,1.011252e+002
2.181188e+003,1.011232e+002
2.183116e+003,1.011307e+002
2.185045e+003,1.011422e+002
2.186973e+003,1.011367e+002
2.188902e+003,1.011150e+002
2.190831e+003,1.011071e+002
2.192759e+003,1.011090e+002
2.194688e+003,1.011045e+002
2.196616e+003,1.011050e+002
2.198545e+003,1.011016e+002
2.200473e+003,1.010887e+002
2.202402e+003,1.010863e+002
2.204330e+003,1.010895e+002
2.206259e+003,1.010844e+002
2.208188e+003,1.010675e+002
2.210116e+003,1.010606e+002
2.212044e+003,1.010582e+002
2.213973e+003,1.010577e+002
2.215902e+003,1.010522e+002
2.217830e+003,1.010427e+002
2.219759e+003,1.010319e+002
2.221687e+003,1.010400e+002
2.223616e+003,1.010290e+002
2.225544e+003,1.010219e+002
2.227473e+003,1.010231e+002
2.229401e+003,1.010133e+002
2.231330e+003,1.010017e+002
2.233259e+003,1.009975e+002
2.235187e+003,1.010101e+002
2.237116e+003,1.010202e+002
2.239044e+003,1.010235e+002
2.240973e+003,1.010333e+002
2.242901e+003,1.010340e+002
2.244830e+003,1.010400e+002
2.246758e+003,1.010319e+002
2.248687e+003,1.010250e+002
2.250615e+003,1.010388e+002
2.252544e+003,1.010511e+002
2.254473e+003,1.010630e+002
2.256401e+003,1.010682e+002
2.258330e+003,1.010636e+002
2.260258e+003,1.010639e+002
2.262187e+003,1.010503e+002
2.264115e+003,1.010497e+002
2.266044e+003,1.010602e+002
2.267972e+003,1.010685e+002
2.269901e+003,1.010492e+002
2.271830e+003,1.010248e+002
2.273758e+003,1.010191e+002
2.275687e+003,1.010076e+002
2.277615e+003,1.009986e+002
2.279544e+003,1.009958e+002
2.281472e+003,1.009919e+002
2.283401e+003,1.009916e+002
2.285329e+003,1.009750e+002
2.287258e+003,1.009632e+002
2.289187e+003,1.009643e+002
2.291115e+003,1.009725e+002
2.293043e+003,1.009502e+002
2.294972e+003,1.009392e+002
2.296901e+003,1.009477e+002
2.298829e+003,1.009419e+002
2.300758e+003,1.009432e+002
2.302686e+003,1.009569e+002
2.304615e+003,1.009763e+002
2.306543e+003,1.009943e+002
2.308472e+003,1.009729e+002
2.310400e+003,1.009654e+002
2.312329e+003,1.010346e+002
2.314258e+003,1.010901e+002
2.316186e+003,1.011051e+002
2.318115e+003,1.011988e+002
2.320043e+003,1.013083e+002
2.321972e+003,1.013782e+002
2.323900e+003,1.014874e+002
2.325829e+003,1.015896e+002
2.327757e+003,1.016749e+002
2.329686e+003,1.017400e+002
2.331615e+003,1.018188e+002
2.333543e+003,1.018836e+002
2.335472e+003,1.019746e+002
2.337400e+003,1.020642e+002
2.339329e+003,1.021369e+002
2.341257e+003,1.022377e+002
2.343186e+003,1.022264e+002
2.345114e+003,1.020227e+002
2.347043e+003,1.016696e+002
2.348971e+003,1.016158e+002
2.350900e+003,1.019171e+002
2.352829e+003,1.024485e+002
2.354757e+003,1.030982e+002
2.356686e+003,1.037542e+002
2.358614e+003,1.042092e+002
2.360543e+003,1.044791e+002
2.362471e+003,1.044719e+002
2.364400e+003,1.041657e+002
2.366328e+003,1.036666e+002
2.368257e+003,1.030929e+002
2.370186e+003,1.025865e+002
2.372114e+003,1.022106e+002
2.374042e+003,1.018709e+002
2.375971e+003,1.015843e+002
2.377900e+003,1.014006e+002
2.379828e+003,1.012878e+002
2.381757e+003,1.011999e+002
2.383685e+003,1.011386e+002
2.385614e+003,1.011180e+002
2.387542e+003,1.011247e+002
2.389471e+003,1.011253e+002
2.391399e+003,1.011153e+002
2.393328e+003,1.011045e+002
2.395257e+003,1.011004e+002
2.397185e+003,1.011035e+002
2.399114e+003,1.011115e+002
2.401042e+003,1.011022e+002
2.402971e+003,1.011033e+002
2.404899e+003,1.011049e+002
2.406828e+003,1.010853e+002
2.408756e+003,1.010713e+002
2.410685e+003,1.010789e+002
2.412614e+003,1.011064e+002
2.414542e+003,1.011167e+002
2.416471e+003,1.011222e+002
2.418399e+003,1.011248e+002
2.420328e+003,1.011175e+002
2.422256e+003,1.011249e+002
2.424185e+003,1.011346e+002
2.426113e+003,1.011343e+002
2.428042e+003,1.011415e+002
2.429970e+003,1.011528e+002
2.431899e+003,1.011570e+002
2.433828e+003,1.011467e+002
2.435756e+003,1.011310e+002
2.437685e+003,1.011241e+002
2.439613e+003,1.011195e+002
2.441542e+003,1.011149e+002
2.443470e+003,1.011161e+002
2.445399e+003,1.011219e+002
2.447327e+003,1.011272e+002
2.449256e+003,1.011163e+002
2.451185e+003,1.011024e+002
2.453113e+003,1.010999e+002
2.455042e+003,1.010947e+002
2.456970e+003,1.010984e+002
2.458899e+003,1.011067e+002
2.460827e+003,1.011162e+002
2.462756e+003,1.011226e+002
2.464684e+003,1.011183e+002
2.466613e+003,1.011026e+002
2.468542e+003,1.010911e+002
2.470470e+003,1.011028e+002
2.472398e+003,1.011088e+002
2.474327e+003,1.010994e+002
2.476256e+003,1.010980e+002
2.478184e+003,1.010996e+002
2.480113e+003,1.010898e+002
2.482041e+003,1.010827e+002
2.483970e+003,1.010910e+002
2.485898e+003,1.010922e+002
2.487827e+003,1.010751e+002
2.489755e+003,1.010681e+002
2.491684e+003,1.010720e+002
2.493613e+003,1.010545e+002
2.495541e+003,1.010478e+002
2.497470e+003,1.010573e+002
2.499398e+003,1.010496e+002
2.501327e+003,1.010444e+002
2.503255e+003,1.010515e+002
2.505184e+003,1.010466e+002
2.507112e+003,1.010414e+002
2.509041e+003,1.010362e+002
2.510969e+003,1.010409e+002
2.512898e+003,1.010404e+002
2.514827e+003,1.010384e+002
2.516755e+003,1.010425e+002
2.518684e+003,1.010250e+002
2.520612e+003,1.009902e+002
2.522541e+003,1.009939e+002
2.524469e+003,1.010144e+002
2.526398e+003,1.010233e+002
2.528326e+003,1.010227e+002
2.530255e+003,1.010309e+002
2.532184e+003,1.010354e+002
2.534112e+003,1.010327e+002
2.536041e+003,1.010240e+002
2.537969e+003,1.010201e+002
2.539898e+003,1.010340e+002
2.541826e+003,1.010301e+002
2.543755e+003,1.010086e+002
2.545683e+003,1.010100e+002
2.547612e+003,1.010211e+002
2.549541e+003,1.010323e+002
2.551469e+003,1.010459e+002
2.553397e+003,1.010400e+002
2.555326e+003,1.010360e+002
2.557255e+003,1.010515e+002
2.559183e+003,1.010426e+002
2.561112e+003,1.010204e+002
2.563040e+003,1.010220e+002
2.564969e+003,1.010314e+002
2.566897e+003,1.010329e+002
2.568826e+003,1.010269e+002
2.570754e+003,1.010331e+002
2.572683e+003,1.010403e+002
2.574612e+003,1.010060e+002
2.576540e+003,1.009760e+002
2.578469e+003,1.009908e+002
2.580397e+003,1.010116e+002
2.582326e+003,1.010229e+002
2.584254e+003,1.010170e+002
2.586183e+003,1.010070e+002
2.588111e+003,1.010110e+002
2.590040e+003,1.010165e+002
2.591969e+003,1.010239e+002
2.593897e+003,1.010229e+002
2.595826e+003,1.010168e+002
2.597754e+003,1.010112e+002
2.599683e+003,1.010132e+002
2.601611e+003,1.010243e+002
2.603540e+003,1.010372e+002
2.605468e+003,1.010398e+002
2.607397e+003,1.010279e+002
2.609325e+003,1.010195e+002
2.611254e+003,1.010222e+002
2.613183e+003,1.010064e+002
2.615111e+003,1.010029e+002
2.617040e+003,1.010338e+002
2.618968e+003,1.010499e+002
2.620897e+003,1.010269e+002
2.622825e+003,1.009981e+002
2.624754e+003,1.009771e+002
2.626682e+003,1.009687e+002
2.628611e+003,1.009725e+002
2.630540e+003,1.009920e+002
2.632468e+003,1.009925e+002
2.634396e+003,1.009876e+002
2.636325e+003,1.009631e+002
2.638254e+003,1.009381e+002
2.640182e+003,1.009646e+002
2.642111e+003,1.009774e+002
2.644039e+003,1.009729e+002
2.645968e+003,1.009734e+002
2.647896e+003,1.009877e+002
2.649825e+003,1.009837e+002
2.651753e+003,1.009683e+002
2.653682e+003,1.009642e+002
2.655611e+003,1.009611e+002
2.657539e+003,1.009672e+002
2.659468e+003,1.009754e+002
2.661396e+003,1.009608e+002
2.663325e+003,1.009515e+002
2.665253e+003,1.009616e+002
2.667182e+003,1.009625e+002
2.669110e+003,1.009628e+002
2.671039e+003,1.009482e+002
2.672968e+003,1.009125e+002
2.674896e+003,1.008940e+002
2.676825e+003,1.008628e+002
2.678753e+003,1.008255e+002
2.680682e+003,1.008298e+002
2.682610e+003,1.009024e+002
2.684539e+003,1.009511e+002
2.686467e+003,1.009468e+002
2.688396e+003,1.009348e+002
2.690324e+003,1.009241e+002
2.692253e+003,1.009278e+002
2.694182e+003,1.009338e+002
2.696110e+003,1.009322e+002
2.698039e+003,1.009201e+002
2.699967e+003,1.009221e+002
2.701896e+003,1.009205e+002
2.703824e+003,1.009102e+002
2.705753e+003,1.009158e+002
2.707681e+003,1.009076e+002
2.709610e+003,1.008735e+002
2.711539e+003,1.008733e+002
2.713467e+003,1.008971e+002
2.715396e+003,1.008959e+002
2.717324e+003,1.008920e+002
2.719253e+003,1.008861e+002
2.721181e+003,1.008388e+002
2.723110e+003,1.008010e+002
2.725038e+003,1.007515e+002
2.726967e+003,1.007577e+002
2.728896e+003,1.008313e+002
2.730824e+003,1.008652e+002
2.732752e+003,1.008725e+002
2.734681e+003,1.008428e+002
2.736610e+003,1.008024e+002
2.738538e+003,1.008150e+002
2.740467e+003,1.008584e+002
2.742395e+003,1.008474e+002
2.744324e+003,1.008175e+002
2.746252e+003,1.007596e+002
2.748181e+003,1.007163e+002
2.750109e+003,1.007519e+002
2.752038e+003,1.008161e+002
2.753967e+003,1.008333e+002
2.755895e+003,1.008181e+002
2.757824e+003,1.008194e+002
2.759752e+003,1.008378e+002
2.761681e+003,1.008491e+002
2.763609e+003,1.008405e+002
2.765538e+003,1.008352e+002
2.767466e+003,1.008284e+002
2.769395e+003,1.008061e+002
2.771323e+003,1.007752e+002
2.773252e+003,1.007046e+002
2.775181e+003,1.006707e+002
2.777109e+003,1.007541e+002
2.779038e+003,1.008110e+002
2.780966e+003,1.008051e+002
2.782895e+003,1.008014e+002
2.784823e+003,1.007949e+002
2.786752e+003,1.007099e+002
2.788680e+003,1.006043e+002
2.790609e+003,1.005962e+002
2.792538e+003,1.006484e+002
2.794466e+003,1.006629e+002
2.796395e+003,1.006049e+002
2.798323e+003,1.005631e+002
2.800252e+003,1.006281e+002
2.802180e+003,1.006701e+002
2.804109e+003,1.006685e+002
2.806037e+003,1.006647e+002
2.807966e+003,1.005983e+002
2.809895e+003,1.005321e+002
2.811823e+003,1.005740e+002
2.813751e+003,1.006144e+002
2.815680e+003,1.005927e+002
2.817609e+003,1.005621e+002
2.819537e+003,1.005212e+002
2.821466e+003,1.004824e+002
2.823394e+003,1.004600e+002
2.825323e+003,1.004598e+002
2.827251e+003,1.004346e+002
2.829180e+003,1.003912e+002
2.831108e+003,1.003482e+002
2.833037e+003,1.002808e+002
2.834966e+003,1.001916e+002
2.836894e+003,1.000699e+002
2.838823e+003,9.994109e+001
2.840751e+003,9.995127e+001
2.842680e+003,9.992265e+001
2.844608e+003,9.974519e+001
2.846537e+003,9.941454e+001
2.848465e+003,9.910160e+001
2.850394e+003,9.893935e+001
2.852323e+003,9.884910e+001
2.854251e+003,9.882957e+001
2.856180e+003,9.888145e+001
2.858108e+003,9.895626e+001
2.860037e+003,9.907581e+001
2.861965e+003,9.927530e+001
2.863894e+003,9.940105e+001
2.865822e+003,9.943526e+001
2.867751e+003,9.945778e+001
2.869679e+003,9.942604e+001
2.871608e+003,9.927743e+001
2.873537e+003,9.915482e+001
2.875465e+003,9.922086e+001
2.877394e+003,9.930978e+001
2.879322e+003,9.931623e+001
2.881251e+003,9.932198e+001
2.883179e+003,9.934629e+001
2.885108e+003,9.937435e+001
2.887036e+003,9.937680e+001
2.888965e+003,9.936529e+001
2.890894e+003,9.934653e+001
2.892822e+003,9.928020e+001
2.894750e+003,9.912909e+001
2.896679e+003,9.905017e+001
2.898608e+003,9.911187e+001
2.900536e+003,9.911527e+001
2.902465e+003,9.900790e+001
2.904393e+003,9.887664e+001
2.906322e+003,9.880475e+001
2.908250e+003,9.866366e+001
2.910179e+003,9.842250e+001
2.912107e+003,9.812141e+001
2.914036e+003,9.782351e+001
2.915965e+003,9.755866e+001
2.917893e+003,9.733092e+001
2.919822e+003,9.722997e+001
2.921750e+003,9.716240e+001
2.923679e+003,9.707436e+001
2.925607e+003,9.699902e+001
2.927536e+003,9.690934e+001
2.929464e+003,9.681728e+001
2.931393e+003,9.691557e+001
2.933322e+003,9.710357e+001
2.935250e+003,9.718016e+001
2.937179e+003,9.719134e+001
2.939107e+003,9.714729e+001
2.941036e+003,9.701959e+001
2.942964e+003,9.681622e+001
2.944893e+003,9.676176e+001
2.946821e+003,9.688763e+001
2.948750e+003,9.715286e+001
2.950678e+003,9.734143e+001
2.952607e+003,9.745062e+001
2.954536e+003,9.771108e+001
2.956464e+003,9.794785e+001
2.958393e+003,9.809576e+001
2.960321e+003,9.818072e+001
2.962250e+003,9.823705e+001
2.964178e+003,9.834488e+001
2.966107e+003,9.846470e+001
2.968035e+003,9.855888e+001
2.969964e+003,9.859630e+001
2.971893e+003,9.857010e+001
2.973821e+003,9.851100e+001
2.975750e+003,9.850689e+001
2.977678e+003,9.847625e+001
2.979607e+003,9.836687e+001
2.981535e+003,9.835867e+001
2.983464e+003,9.842201e+001
2.985392e+003,9.838421e+001
2.987321e+003,9.821027e+001
2.989250e+003,9.796595e+001
2.991178e+003,9.765299e+001
2.993106e+003,9.746703e+001
2.995035e+003,9.746751e+001
2.996964e+003,9.745392e+001
2.998892e+003,9.757532e+001
3.000821e+003,9.780999e+001
3.002749e+003,9.799446e+001
3.004678e+003,9.823583e+001
3.006606e+003,9.847710e+001
3.008535e+003,9.861310e+001
3.010463e+003,9.867869e+001
3.012392e+003,9.878844e+001
3.014321e+003,9.894075e+001
3.016249e+003,9.913754e+001
3.018178e+003,9.935667e+001
3.020106e+003,9.957413e+001
3.022035e+003,9.974852e+001
3.023963e+003,9.978350e+001
3.025892e+003,9.987099e+001
3.027820e+003,9.998548e+001
3.029749e+003,9.998554e+001
3.031677e+003,9.995299e+001
3.033606e+003,9.989497e+001
3.035535e+003,9.993794e+001
3.037463e+003,1.000356e+002
3.039392e+003,9.998051e+001
3.041320e+003,9.988574e+001
3.043249e+003,9.989509e+001
3.045177e+003,9.996536e+001
3.047106e+003,1.000504e+002
3.049034e+003,1.000305e+002
3.050963e+003,9.998707e+001
3.052892e+003,1.000199e+002
3.054820e+003,1.000209e+002
3.056749e+003,1.000312e+002
3.058677e+003,1.001004e+002
3.060606e+003,1.001411e+002
3.062534e+003,1.000900e+002
3.064463e+003,1.000099e+002
3.066391e+003,9.990007e+001
3.068320e+003,9.989703e+001
3.070249e+003,9.999607e+001
3.072177e+003,1.000399e+002
3.074105e+003,1.000113e+002
3.076034e+003,9.989856e+001
3.077963e+003,9.978310e+001
3.079891e+003,9.976064e+001
3.081820e+003,9.979077e+001
3.083748e+003,9.978696e+001
3.085677e+003,9.979948e+001
3.087605e+003,9.982664e+001
3.089534e+003,9.981630e+001
3.091462e+003,9.986211e+001
3.093391e+003,9.995944e+001
3.095320e+003,9.998876e+001
3.097248e+003,9.996336e+001
3.099177e+003,9.988067e+001
3.101105e+003,9.986563e+001
3.103034e+003,9.992947e+001
3.104962e+003,9.994505e+001
3.106891e+003,9.986492e+001
3.108819e+003,9.978245e+001
3.110748e+003,9.981660e+001
3.112677e+003,9.981508e+001
3.114605e+003,9.970875e+001
3.116534e+003,9.961858e+001
3.118462e+003,9.959624e+001
3.120391e+003,9.962036e+001
3.122319e+003,9.973860e+001
3.124248e+003,9.984438e+001
3.126176e+003,9.984095e+001
3.128105e+003,9.977800e+001
3.130033e+003,9.975914e+001
3.131962e+003,9.983931e+001
3.133891e+003,9.985241e+001
3.135819e+003,9.977356e+001
3.137748e+003,9.962991e+001
3.139676e+003,9.958531e+001
3.141605e+003,9.969924e+001
3.143533e+003,9.976167e+001
3.145462e+003,9.979050e+001
3.147390e+003,9.979330e+001
3.149319e+003,9.971124e+001
3.151248e+003,9.953575e+001
3.153176e+003,9.947063e+001
3.155104e+003,9.958866e+001
3.157033e+003,9.970006e+001
3.158962e+003,9.975137e+001
3.160890e+003,9.976809e+001
3.162819e+003,9.975658e+001
3.164747e+003,9.974249e+001
3.166676e+003,9.971999e+001
3.168604e+003,9.971079e+001
3.170533e+003,9.971805e+001
3.172461e+003,9.970153e+001
3.174390e+003,9.967180e+001
3.176319e+003,9.966132e+001
3.178247e+003,9.963763e+001
3.180176e+003,9.959923e+001
3.182104e+003,9.958994e+001
3.184033e+003,9.960007e+001
3.185961e+003,9.959457e+001
3.187890e+003,9.954348e+001
3.189818e+003,9.950494e+001
3.191747e+003,9.951067e+001
3.193676e+003,9.951004e+001
3.195604e+003,9.950708e+001
3.197532e+003,9.951453e+001
3.199461e+003,9.950163e+001
3.201390e+003,9.946192e+001
3.203318e+003,9.943552e+001
3.205247e+003,9.941078e+001
3.207175e+003,9.941759e+001
3.209104e+003,9.946207e+001
3.211032e+003,9.946171e+001
3.212961e+003,9.939994e+001
3.214889e+003,9.938667e+001
3.216818e+003,9.941023e+001
3.218747e+003,9.937824e+001
3.220675e+003,9.940990e+001
3.222604e+003,9.943250e+001
3.224532e+003,9.941145e+001
3.226461e+003,9.941037e+001
3.228389e+003,9.939413e+001
3.230318e+003,9.929861e+001
3.232246e+003,9.912979e+001
3.234175e+003,9.909342e+001
3.236104e+003,9.923679e+001
3.238032e+003,9.933607e+001
3.239961e+003,9.934569e+001
3.241889e+003,9.934164e+001
3.243818e+003,9.928871e+001
3.245746e+003,9.911394e+001
3.247675e+003,9.907457e+001
3.249603e+003,9.922746e+001
3.251532e+003,9.932800e+001
3.253460e+003,9.929032e+001
3.255389e+003,9.918992e+001
3.257318e+003,9.923476e+001
3.259246e+003,9.931705e+001
3.261175e+003,9.931204e+001
3.263103e+003,9.929459e+001
3.265032e+003,9.928898e+001
3.266960e+003,9.920985e+001
3.268889e+003,9.900495e+001
3.270817e+003,9.886655e+001
3.272746e+003,9.894820e+001
3.274675e+003,9.903573e+001
3.276603e+003,9.914087e+001
3.278531e+003,9.923204e+001
3.280460e+003,9.922281e+001
3.282389e+003,9.924771e+001
3.284317e+003,9.924516e+001
3.286246e+003,9.923612e+001
3.288174e+003,9.922484e+001
3.290103e+003,9.905988e+001
3.292031e+003,9.886448e+001
3.293960e+003,9.882137e+001
3.295888e+003,9.886501e+001
3.297817e+003,9.901198e+001
3.299746e+003,9.911882e+001
3.301674e+003,9.908427e+001
3.303603e+003,9.889975e+001
3.305531e+003,9.873702e+001
3.307460e+003,9.873447e+001
3.309388e+003,9.885413e+001
3.311317e+003,9.905839e+001
3.313245e+003,9.916018e+001
3.315174e+003,9.917860e+001
3.317103e+003,9.920772e+001
3.319031e+003,9.921461e+001
3.320960e+003,9.916513e+001
3.322888e+003,9.906322e+001
3.324817e+003,9.895135e+001
3.326745e+003,9.901375e+001
3.328674e+003,9.916537e+001
3.330602e+003,9.918544e+001
3.332531e+003,9.918781e+001
3.334459e+003,9.914776e+001
3.336388e+003,9.897910e+001
3.338317e+003,9.884973e+001
3.340245e+003,9.893083e+001
3.342174e+003,9.898903e+001
3.344102e+003,9.903469e+001
3.346031e+003,9.911993e+001
3.347959e+003,9.907772e+001
3.349888e+003,9.893574e+001
3.351816e+003,9.897887e+001
3.353745e+003,9.916803e+001
3.355674e+003,9.925907e+001
3.357602e+003,9.922314e+001
3.359531e+003,9.911635e+001
3.361459e+003,9.912325e+001
3.363388e+003,9.918489e+001
3.365316e+003,9.906638e+001
3.367245e+003,9.889857e+001
3.369173e+003,9.888597e+001
3.371102e+003,9.904160e+001
3.373031e+003,9.922635e+001
3.374959e+003,9.925019e+001
3.376887e+003,9.923745e+001
3.378816e+003,9.926924e+001
3.380745e+003,9.930925e+001
3.382673e+003,9.938789e+001
3.384602e+003,9.943747e+001
3.386530e+003,9.943323e+001
3.388459e+003,9.931270e+001
3.390387e+003,9.908808e+001
3.392316e+003,9.901996e+001
3.394244e+003,9.916859e+001
3.396173e+003,9.926236e+001
3.398102e+003,9.918855e+001
3.400030e+003,9.905119e+001
3.401959e+003,9.911922e+001
3.403887e+003,9.932719e+001
3.405816e+003,9.942593e+001
3.407744e+003,9.935587e+001
3.409673e+003,9.931140e+001
3.411601e+003,9.930364e+001
3.413530e+003,9.933647e+001
3.415458e+003,9.948714e+001
3.417387e+003,9.956046e+001
3.419316e+003,9.951040e+001
3.421244e+003,9.952516e+001
3.423173e+003,9.960210e+001
3.425101e+003,9.958825e+001
3.427030e+003,9.950705e+001
3.428958e+003,9.938581e+001
3.430887e+003,9.937926e+001
3.432815e+003,9.941593e+001
3.434744e+003,9.934757e+001
3.436673e+003,9.936152e+001
3.438601e+003,9.954536e+001
3.440530e+003,9.972106e+001
3.442458e+003,9.976138e+001
3.444387e+003,9.975346e+001
3.446315e+003,9.972947e+001
3.448244e+003,9.975574e+001
3.450172e+003,9.984688e+001
3.452101e+003,9.988941e+001
3.454030e+003,9.990981e+001
3.455958e+003,9.991148e+001
3.457886e+003,9.983397e+001
3.459815e+003,9.972035e+001
3.461744e+003,9.978035e+001
3.463672e+003,9.983204e+001
3.465601e+003,9.970413e+001
3.467529e+003,9.955684e+001
3.469458e+003,9.963901e+001
3.471386e+003,9.991132e+001
3.473315e+003,1.000804e+002
3.475243e+003,1.001044e+002
3.477172e+003,1.000432e+002
3.479101e+003,9.990843e+001
3.481029e+003,1.000119e+002
3.482958e+003,1.001790e+002
3.484886e+003,1.001141e+002
3.486815e+003,1.000449e+002
3.488743e+003,1.001639e+002
3.490672e+003,1.002537e+002
3.492600e+003,1.002352e+002
3.494529e+003,1.001812e+002
3.496458e+003,1.001064e+002
3.498386e+003,1.001403e+002
3.500315e+003,1.002098e+002
3.502243e+003,1.001383e+002
3.504172e+003,1.002854e+002
3.506100e+003,1.005305e+002
3.508029e+003,1.006778e+002
3.509957e+003,1.006946e+002
3.511886e+003,1.005363e+002
3.513814e+003,1.004312e+002
3.515743e+003,1.005857e+002
3.517672e+003,1.007276e+002
3.519600e+003,1.007966e+002
3.521529e+003,1.007328e+002
3.523457e+003,1.005694e+002
3.525386e+003,1.007114e+002
3.527314e+003,1.009354e+002
3.529243e+003,1.009514e+002
3.531171e+003,1.009377e+002
3.533100e+003,1.009134e+002
3.535029e+003,1.007896e+002
3.536957e+003,1.007404e+002
3.538885e+003,1.008691e+002
3.540814e+003,1.008403e+002
3.542743e+003,1.007210e+002
3.544671e+003,1.006515e+002
3.546600e+003,1.007597e+002
3.548528e+003,1.009403e+002
3.550457e+003,1.010083e+002
3.552385e+003,1.010341e+002
3.554314e+003,1.010749e+002
3.556242e+003,1.010891e+002
3.558171e+003,1.010719e+002
3.560100e+003,1.010173e+002
3.562028e+003,1.010647e+002
3.563957e+003,1.012608e+002
3.565885e+003,1.013720e+002
3.567814e+003,1.011881e+002
3.569742e+003,1.010200e+002
3.571671e+003,1.011367e+002
3.573599e+003,1.012270e+002
3.575528e+003,1.012134e+002
3.577457e+003,1.012138e+002
3.579385e+003,1.011888e+002
3.581314e+003,1.010912e+002
3.583242e+003,1.010355e+002
3.585171e+003,1.010669e+002
3.587099e+003,1.012028e+002
3.589028e+003,1.012323e+002
3.590956e+003,1.011933e+002
3.592885e+003,1.012683e+002
3.594813e+003,1.013261e+002
3.596742e+003,1.012478e+002
3.598671e+003,1.011431e+002
3.600599e+003,1.011368e+002
3.602528e+003,1.011569e+002
3.604456e+003,1.012245e+002
3.606385e+003,1.013695e+002
3.608313e+003,1.014132e+002
3.610242e+003,1.013643e+002
3.612170e+003,1.014451e+002
3.614099e+003,1.013908e+002
3.616028e+003,1.013520e+002
3.617956e+003,1.014328e+002
3.619885e+003,1.012840e+002
3.621813e+003,1.011570e+002
3.623742e+003,1.012749e+002
3.625670e+003,1.014442e+002
3.627599e+003,1.016637e+002
3.629527e+003,1.015526e+002
3.631456e+003,1.013358e+002
3.633385e+003,1.013312e+002
3.635313e+003,1.012938e+002
3.637241e+003,1.013444e+002
3.639170e+003,1.013742e+002
3.641099e+003,1.013545e+002
3.643027e+003,1.013207e+002
3.644956e+003,1.014224e+002
3.646884e+003,1.016453e+002
3.648813e+003,1.015839e+002
3.650741e+003,1.012056e+002
3.652670e+003,1.012067e+002
3.654598e+003,1.014047e+002
3.656527e+003,1.013406e+002
3.658456e+003,1.011064e+002
3.660384e+003,1.010811e+002
3.662313e+003,1.011952e+002
3.664241e+003,1.012957e+002
3.666170e+003,1.014000e+002
3.668098e+003,1.015886e+002
3.670027e+003,1.015833e+002
3.671955e+003,1.013889e+002
3.673884e+003,1.015558e+002
3.675813e+003,1.015865e+002
3.677741e+003,1.013666e+002
3.679670e+003,1.013269e+002
3.681598e+003,1.013150e+002
3.683527e+003,1.013085e+002
3.685455e+003,1.013142e+002
3.687384e+003,1.013205e+002
3.689312e+003,1.012705e+002
3.691241e+003,1.013168e+002
3.693169e+003,1.013114e+002
3.695098e+003,1.012889e+002
3.697027e+003,1.013220e+002
3.698955e+003,1.014568e+002
3.700884e+003,1.015415e+002
3.702812e+003,1.014404e+002
3.704741e+003,1.013677e+002
3.706669e+003,1.014393e+002
3.708598e+003,1.015663e+002
3.710526e+003,1.016560e+002
3.712455e+003,1.015248e+002
3.714384e+003,1.014087e+002
3.716312e+003,1.014462e+002
3.718240e+003,1.014813e+002
3.720169e+003,1.015185e+002
3.722098e+003,1.015324e+002
3.724026e+003,1.015462e+002
3.725955e+003,1.015398e+002
3.727883e+003,1.014487e+002
3.729812e+003,1.015168e+002
3.731740e+003,1.016088e+002
3.733669e+003,1.016237e+002
3.735597e+003,1.015261e+002
3.737526e+003,1.012459e+002
3.739455e+003,1.012575e+002
3.741383e+003,1.014668e+002
3.743312e+003,1.018327e+002
3.745240e+003,1.017884e+002
3.747169e+003,1.016114e+002
3.749097e+003,1.018310e+002
3.751026e+003,1.018865e+002
3.752954e+003,1.016267e+002
3.754883e+003,1.015092e+002
3.756812e+003,1.015585e+002
3.758740e+003,1.015119e+002
3.760669e+003,1.014242e+002
3.762597e+003,1.014599e+002
3.764526e+003,1.015595e+002
3.766454e+003,1.015120e+002
3.768383e+003,1.015480e+002
3.770311e+003,1.015240e+002
3.772240e+003,1.014270e+002
3.774168e+003,1.014107e+002
3.776097e+003,1.014040e+002
3.778026e+003,1.013738e+002
3.779954e+003,1.013247e+002
3.781883e+003,1.014012e+002
3.783811e+003,1.014680e+002
3.785740e+003,1.014147e+002
3.787668e+003,1.013947e+002
3.789597e+003,1.013790e+002
3.791525e+003,1.013970e+002
3.793454e+003,1.014685e+002
3.795383e+003,1.015662e+002
3.797311e+003,1.015113e+002
3.799240e+003,1.015777e+002
3.801168e+003,1.016604e+002
3.803097e+003,1.014346e+002
3.805025e+003,1.015097e+002
3.806954e+003,1.015243e+002
3.808882e+003,1.013630e+002
3.810811e+003,1.013989e+002
3.812740e+003,1.014825e+002
3.814668e+003,1.015895e+002
3.816596e+003,1.015017e+002
3.818525e+003,1.014651e+002
3.820454e+003,1.015568e+002
3.822382e+003,1.013914e+002
3.824311e+003,1.013768e+002
3.826239e+003,1.014169e+002
3.828168e+003,1.013856e+002
3.830096e+003,1.014525e+002
3.832025e+003,1.014349e+002
3.833953e+003,1.013624e+002
3.835882e+003,1.013240e+002
3.837811e+003,1.014534e+002
3.839739e+003,1.014589e+002
3.841668e+003,1.013942e+002
3.843596e+003,1.012745e+002
3.845525e+003,1.011754e+002
3.847453e+003,1.012959e+002
3.849382e+003,1.014520e+002
3.851310e+003,1.016777e+002
3.853239e+003,1.018673e+002
3.855167e+003,1.015103e+002
3.857096e+003,1.013244e+002
3.859025e+003,1.013310e+002
3.860953e+003,1.014231e+002
3.862882e+003,1.014542e+002
3.864810e+003,1.013953e+002
3.866739e+003,1.013253e+002
3.868667e+003,1.014616e+002
3.870596e+003,1.013730e+002
3.872524e+003,1.013262e+002
3.874453e+003,1.013319e+002
3.876382e+003,1.012994e+002
3.878310e+003,1.014342e+002
3.880239e+003,1.014271e+002
3.882167e+003,1.012488e+002
3.884096e+003,1.012335e+002
3.886024e+003,1.011685e+002
3.887953e+003,1.012138e+002
3.889881e+003,1.013868e+002
3.891810e+003,1.013238e+002
3.893739e+003,1.012084e+002
3.895667e+003,1.012838e+002
3.897595e+003,1.013717e+002
3.899524e+003,1.013448e+002
3.901453e+003,1.013326e+002
3.903381e+003,1.013398e+002
3.905310e+003,1.012324e+002
3.907238e+003,1.011703e+002
3.909167e+003,1.012003e+002
3.911095e+003,1.012306e+002
3.913024e+003,1.012540e+002
3.914952e+003,1.013021e+002
3.916881e+003,1.012768e+002
3.918810e+003,1.012302e+002
3.920738e+003,1.012411e+002
3.922667e+003,1.013052e+002
3.924595e+003,1.013028e+002
3.926524e+003,1.012359e+002
3.928452e+003,1.012882e+002
3.930381e+003,1.013134e+002
3.932309e+003,1.012489e+002
3.934238e+003,1.011717e+002
3.936167e+003,1.011858e+002
3.938095e+003,1.012270e+002
3.940024e+003,1.012822e+002
3.941952e+003,1.012908e+002
3.943881e+003,1.012156e+002
3.945809e+003,1.012491e+002
3.947738e+003,1.012669e+002
3.949666e+003,1.011960e+002
3.951595e+003,1.011762e+002
3.953523e+003,1.011743e+002
3.955452e+003,1.012058e+002
3.957380e+003,1.012315e+002
3.959309e+003,1.012379e+002
3.961238e+003,1.012591e+002
3.963166e+003,1.012434e+002
3.965095e+003,1.012105e+002
3.967023e+003,1.012054e+002
3.968952e+003,1.012042e+002
3.970880e+003,1.011924e+002
3.972809e+003,1.011793e+002
3.974737e+003,1.011641e+002
3.976666e+003,1.011664e+002
3.978594e+003,1.011731e+002
3.980523e+003,1.011543e+002
3.982452e+003,1.011013e+002
3.984380e+003,1.010747e+002
3.986309e+003,1.010978e+002
3.988237e+003,1.011482e+002
3.990166e+003,1.011833e+002
3.992094e+003,1.011752e+002
3.994023e+003,1.011580e+002
3.995951e+003,1.011482e+002
3.997880e+003,1.011298e+002
3.999809e+003,1.011251e+002
4.001737e+003,0.000000e+000
