3.992094e+002,0.000000e+000
4.011380e+002,0.000000e+000
4.030665e+002,0.000000e+000
4.049951e+002,0.000000e+000
4.069236e+002,0.000000e+000
4.088522e+002,0.000000e+000
4.107807e+002,0.000000e+000
4.127093e+002,0.000000e+000
4.146378e+002,0.000000e+000
4.165664e+002,0.000000e+000
4.184949e+002,0.000000e+000
4.204235e+002,0.000000e+000
4.223520e+002,0.000000e+000
4.242806e+002,0.000000e+000
4.262091e+002,0.000000e+000
4.281377e+002,0.000000e+000
4.300662e+002,0.000000e+000
4.319948e+002,0.000000e+000
4.339233e+002,0.000000e+000
4.358519e+002,0.000000e+000
4.377804e+002,0.000000e+000
4.397090e+002,0.000000e+000
4.416375e+002,0.000000e+000
4.435660e+002,0.000000e+000
4.454946e+002,0.000000e+000
4.474232e+002,0.000000e+000
4.493517e+002,0.000000e+000
4.512802e+002,0.000000e+000
4.532088e+002,0.000000e+000
4.551373e+002,0.000000e+000
4.570659e+002,0.000000e+000
4.589944e+002,0.000000e+000
4.609230e+002,0.000000e+000
4.628515e+002,0.000000e+000
4.647801e+002,0.000000e+000
4.667086e+002,0.000000e+000
4.686372e+002,0.000000e+000
4.705657e+002,0.000000e+000
4.724943e+002,0.000000e+000
4.744228e+002,0.000000e+000
4.763514e+002,0.000000e+000
4.782799e+002,0.000000e+000
4.802085e+002,0.000000e+000
4.821370e+002,0.000000e+000
4.840656e+002,0.000000e+000
4.859941e+002,0.000000e+000
4.879226e+002,0.000000e+000
4.898512e+002,0.000000e+000
4.917798e+002,0.000000e+000
4.937083e+002,0.000000e+000
4.956368e+002,0.000000e+000
4.975654e+002,0.000000e+000
4.994939e+002,0.000000e+000
5.014225e+002,0.000000e+000
5.033510e+002,0.000000e+000
5.052796e+002,0.000000e+000
5.072081e+002,0.000000e+000
5.091367e+002,0.000000e+000
5.110652e+002,0.000000e+000
5.129938e+002,0.000000e+000
5.149223e+002,0.000000e+000
5.168509e+002,0.000000e+000
5.187794e+002,0.000000e+000
5.207079e+002,0.000000e+000
5.226365e+002,0.000000e+000
5.245651e+002,0.000000e+000
5.264936e+002,0.000000e+000
5.284221e+002,0.000000e+000
5.303507e+002,0.000000e+000
5.322792e+002,0.000000e+000
5.342078e+002,0.000000e+000
5.361364e+002,0.000000e+000
5.380649e+002,0.000000e+000
5.399934e+002,0.000000e+000
5.419220e+002,0.000000e+000
5.438505e+002,0.000000e+000
5.457791e+002,0.000000e+000
5.477076e+002,0.000000e+000
5.496362e+002,0.000000e+000
5.515647e+002,0.000000e+000
5.534933e+002,0.000000e+000
5.554218e+002,0.000000e+000
5.573503e+002,0.000000e+000
5.592789e+002,0.000000e+000
5.612075e+002,0.000000e+000
5.631360e+002,0.000000e+000
5.650646e+002,0.000000e+000
5.669931e+002,0.000000e+000
5.689216e+002,0.000000e+000
5.708502e+002,0.000000e+000
5.727787e+002,0.000000e+000
5.747073e+002,0.000000e+000
5.766359e+002,0.000000e+000
5.785644e+002,0.000000e+000
5.804929e+002,0.000000e+000
5.824215e+002,0.000000e+000
5.843500e+002,0.000000e+000
5.862786e+002,0.000000e+000
5.882072e+002,0.000000e+000
5.901357e+002,0.000000e+000
5.920642e+002,0.000000e+000
5.939928e+002,0.000000e+000
5.959213e+002,0.000000e+000
5.978499e+002,0.000000e+000
5.997784e+002,0.000000e+000
6.017070e+002,0.000000e+000
6.036355e+002,0.000000e+000
6.055641e+002,0.000000e+000
6.074926e+002,0.000000e+000
6.094211e+002,0.000000e+000
6.113497e+002,0.000000e+000
6.132783e+002,0.000000e+000
6.152068e+002,0.000000e+000
6.171354e+002,0.000000e+000
6.190639e+002,0.000000e+000
6.209924e+002,0.000000e+000
6.229210e+002,0.000000e+000
6.248495e+002,0.000000e+000
6.267781e+002,0.000000e+000
6.287067e+002,0.000000e+000
6.306352e+002,0.000000e+000
6.325637e+002,0.000000e+000
6.344923e+002,0.000000e+000
6.364208e+002,0.000000e+000
6.383494e+002,0.000000e+000
6.402780e+002,0.000000e+000
6.422065e+002,0.000000e+000
6.441350e+002,0.000000e+000
6.460636e+002,0.000000e+000
6.479921e+002,0.000000e+000
6.499207e+002,0.000000e+000
6.518492e+002,0.000000e+000
6.537778e+002,0.000000e+000
6.557063e+002,0.000000e+000
6.576349e+002,0.000000e+000
6.595634e+002,0.000000e+000
6.614919e+002,0.000000e+000
6.634205e+002,0.000000e+000
6.653491e+002,0.000000e+000
6.672776e+002,0.000000e+000
6.692062e+002,0.000000e+000
6.711347e+002,0.000000e+000
6.730632e+002,0.000000e+000
6.749918e+002,8.994563e+001
6.769203e+002,8.991206e+001
6.788489e+002,8.995866e+001
6.807775e+002,8.977654e+001
6.827060e+002,8.969788e+001
6.846345e+002,8.964528e+001
6.865631e+002,8.950687e+001
6.884916e+002,8.940087e+001
6.904202e+002,8.934851e+001
6.923488e+002,8.937220e+001
6.942773e+002,8.926236e+001
6.962058e+002,8.917022e+001
6.981344e+002,8.924258e+001
7.000629e+002,8.933989e+001
7.019915e+002,8.945485e+001
7.039200e+002,8.957330e+001
7.058486e+002,8.967588e+001
7.077771e+002,8.977614e+001
7.097057e+002,8.997087e+001
7.116342e+002,9.033676e+001
7.135627e+002,9.075891e+001
7.154913e+002,9.117806e+001
7.174199e+002,9.168370e+001
7.193484e+002,9.225002e+001
7.212770e+002,9.285395e+001
7.232055e+002,9.345572e+001
7.251340e+002,9.395963e+001
7.270626e+002,9.428693e+001
7.289911e+002,9.439397e+001
7.309197e+002,9.422620e+001
7.328483e+002,9.374800e+001
7.347768e+002,9.312328e+001
7.367053e+002,9.249852e+001
7.386339e+002,9.198526e+001
7.405624e+002,9.151969e+001
7.424910e+002,9.094635e+001
7.444196e+002,9.036266e+001
7.463481e+002,8.983777e+001
7.482766e+002,8.918736e+001
7.502052e+002,8.823636e+001
7.521337e+002,8.703710e+001
7.540623e+002,8.570137e+001
7.559908e+002,8.464124e+001
7.579194e+002,8.439643e+001
7.598479e+002,8.512512e+001
7.617765e+002,8.660372e+001
7.637050e+002,8.814249e+001
7.656335e+002,8.943058e+001
7.675621e+002,9.050867e+001
7.694907e+002,9.139373e+001
7.714192e+002,9.208208e+001
7.733478e+002,9.266589e+001
7.752763e+002,9.318569e+001
7.772048e+002,9.361240e+001
7.791334e+002,9.400899e+001
7.810620e+002,9.444268e+001
7.829905e+002,9.492543e+001
7.849191e+002,9.540649e+001
7.868476e+002,9.584994e+001
7.887761e+002,9.617450e+001
7.907047e+002,9.647525e+001
7.926332e+002,9.672572e+001
7.945618e+002,9.684969e+001
7.964904e+002,9.690001e+001
7.984189e+002,9.701217e+001
8.003474e+002,9.709852e+001
8.022760e+002,9.711425e+001
8.042045e+002,9.713910e+001
8.061331e+002,9.715895e+001
8.080616e+002,9.713658e+001
8.099902e+002,9.714869e+001
8.119187e+002,9.713962e+001
8.138473e+002,9.711533e+001
8.157758e+002,9.710947e+001
8.177043e+002,9.712363e+001
8.196329e+002,9.710568e+001
8.215615e+002,9.704962e+001
8.234900e+002,9.698760e+001
8.254186e+002,9.699454e+001
8.273471e+002,9.700331e+001
8.292756e+002,9.696514e+001
8.312042e+002,9.689739e+001
8.331328e+002,9.683004e+001
8.350613e+002,9.667109e+001
8.369899e+002,9.649539e+001
8.389184e+002,9.631491e+001
8.408469e+002,9.608028e+001
8.427755e+002,9.579338e+001
8.447040e+002,9.545951e+001
8.466326e+002,9.508786e+001
8.485612e+002,9.479044e+001
8.504896e+002,9.452966e+001
8.524182e+002,9.415666e+001
8.543468e+002,9.353029e+001
8.562753e+002,9.269173e+001
8.582039e+002,9.169251e+001
8.601324e+002,9.062897e+001
8.620609e+002,8.961586e+001
8.639895e+002,8.875735e+001
8.659181e+002,8.814047e+001
8.678466e+002,8.780333e+001
8.697751e+002,8.780180e+001
8.717037e+002,8.813573e+001
8.736322e+002,8.878626e+001
8.755608e+002,8.968856e+001
8.774894e+002,9.072850e+001
8.794178e+002,9.180169e+001
8.813464e+002,9.283958e+001
8.832750e+002,9.368873e+001
8.852035e+002,9.425502e+001
8.871321e+002,9.455508e+001
8.890607e+002,9.465030e+001
8.909891e+002,9.464796e+001
8.929177e+002,9.462199e+001
8.948463e+002,9.461118e+001
8.967748e+002,9.462067e+001
8.987034e+002,9.461796e+001
9.006320e+002,9.461571e+001
9.025604e+002,9.462245e+001
9.044890e+002,9.460461e+001
9.064176e+002,9.455669e+001
9.083461e+002,9.450027e+001
9.102747e+002,9.446455e+001
9.122032e+002,9.439555e+001
9.141317e+002,9.427650e+001
9.160603e+002,9.412724e+001
9.179889e+002,9.402077e+001
9.199174e+002,9.393923e+001
9.218459e+002,9.392829e+001
9.237745e+002,9.405397e+001
9.257030e+002,9.429200e+001
9.276316e+002,9.458791e+001
9.295602e+002,9.487967e+001
9.314886e+002,9.514528e+001
9.334172e+002,9.535690e+001
9.353458e+002,9.547002e+001
9.372743e+002,9.551808e+001
9.392029e+002,9.551131e+001
9.411315e+002,9.549054e+001
9.430599e+002,9.545704e+001
9.449885e+002,9.539382e+001
9.469171e+002,9.527975e+001
9.488456e+002,9.515118e+001
9.507742e+002,9.500897e+001
9.527028e+002,9.487738e+001
9.546312e+002,9.474167e+001
9.565598e+002,9.469470e+001
9.584884e+002,9.481491e+001
9.604169e+002,9.508074e+001
9.623455e+002,9.538718e+001
9.642740e+002,9.563085e+001
9.662025e+002,9.576254e+001
9.681311e+002,9.580278e+001
9.700597e+002,9.579232e+001
9.719882e+002,9.574275e+001
9.739167e+002,9.564383e+001
9.758453e+002,9.552631e+001
9.777738e+002,9.540941e+001
9.797024e+002,9.529911e+001
9.816310e+002,9.514371e+001
9.835594e+002,9.498135e+001
9.854880e+002,9.482515e+001
9.874166e+002,9.467655e+001
9.893451e+002,9.450867e+001
9.912737e+002,9.432785e+001
9.932023e+002,9.413107e+001
9.951307e+002,9.390026e+001
9.970593e+002,9.362553e+001
9.989879e+002,9.331051e+001
1.000916e+003,9.298324e+001
1.002845e+003,9.262923e+001
1.004774e+003,9.219317e+001
1.006702e+003,9.164225e+001
1.008631e+003,9.098186e+001
1.010559e+003,9.020582e+001
1.012488e+003,8.928875e+001
1.014416e+003,8.827042e+001
1.016345e+003,8.717901e+001
1.018273e+003,8.601805e+001
1.020202e+003,8.481437e+001
1.022130e+003,8.356063e+001
1.024059e+003,8.222015e+001
1.025988e+003,8.071810e+001
1.027916e+003,7.901518e+001
1.029845e+003,7.707903e+001
1.031773e+003,7.488913e+001
1.033702e+003,7.250739e+001
1.035630e+003,7.010616e+001
1.037559e+003,6.790794e+001
1.039487e+003,6.615776e+001
1.041416e+003,6.502344e+001
1.043344e+003,6.464285e+001
1.045273e+003,6.498657e+001
1.047202e+003,6.599153e+001
1.049130e+003,6.751574e+001
1.051059e+003,6.930774e+001
1.052987e+003,7.103216e+001
1.054916e+003,7.251218e+001
1.056844e+003,7.357171e+001
1.058773e+003,7.418916e+001
1.060701e+003,7.432646e+001
1.062630e+003,7.386111e+001
1.064558e+003,7.265511e+001
1.066487e+003,7.076302e+001
1.068416e+003,6.824991e+001
1.070344e+003,6.521418e+001
1.072273e+003,6.175632e+001
1.074201e+003,5.798168e+001
1.076130e+003,5.393032e+001
1.078058e+003,4.985936e+001
1.079987e+003,4.599818e+001
1.081915e+003,4.272400e+001
1.083844e+003,4.037982e+001
1.085773e+003,3.923219e+001
1.087701e+003,3.915364e+001
1.089630e+003,3.994562e+001
1.091558e+003,4.133092e+001
1.093487e+003,4.313665e+001
1.095415e+003,4.517701e+001
1.097344e+003,4.742950e+001
1.099272e+003,4.980116e+001
1.101201e+003,5.225278e+001
1.103129e+003,5.469391e+001
1.105058e+003,5.712782e+001
1.106987e+003,5.941351e+001
1.108915e+003,6.143692e+001
1.110844e+003,6.314285e+001
1.112772e+003,6.451109e+001
1.114701e+003,6.547861e+001
1.116629e+003,6.603725e+001
1.118558e+003,6.617790e+001
1.120486e+003,6.589267e+001
1.122415e+003,6.515253e+001
1.124344e+003,6.408122e+001
1.126272e+003,6.293765e+001
1.128201e+003,6.213513e+001
1.130129e+003,6.198788e+001
1.132058e+003,6.268317e+001
1.133986e+003,6.425370e+001
1.135915e+003,6.667002e+001
1.137843e+003,6.976275e+001
1.139772e+003,7.329745e+001
1.141700e+003,7.697919e+001
1.143629e+003,8.048282e+001
1.145557e+003,8.356373e+001
1.147486e+003,8.605427e+001
1.149415e+003,8.787222e+001
1.151343e+003,8.908179e+001
1.153272e+003,8.979970e+001
1.155200e+003,9.010648e+001
1.157129e+003,9.005251e+001
1.159057e+003,8.971305e+001
1.160986e+003,8.907748e+001
1.162914e+003,8.808453e+001
1.164843e+003,8.663145e+001
1.166771e+003,8.459006e+001
1.168700e+003,8.179914e+001
1.170629e+003,7.812142e+001
1.172557e+003,7.353480e+001
1.174486e+003,6.810391e+001
1.176414e+003,6.224406e+001
1.178343e+003,5.679787e+001
1.180271e+003,5.268469e+001
1.182200e+003,5.056536e+001
1.184128e+003,5.043516e+001
1.186057e+003,5.177543e+001
1.187986e+003,5.392819e+001
1.189914e+003,5.632727e+001
1.191843e+003,5.861306e+001
1.193771e+003,6.062233e+001
1.195700e+003,6.228538e+001
1.197628e+003,6.356541e+001
1.199557e+003,6.445652e+001
1.201485e+003,6.498843e+001
1.203414e+003,6.520993e+001
1.205343e+003,6.520266e+001
1.207271e+003,6.510886e+001
1.209200e+003,6.510537e+001
1.211128e+003,6.537139e+001
1.213057e+003,6.604015e+001
1.214985e+003,6.719080e+001
1.216914e+003,6.881958e+001
1.218842e+003,7.083704e+001
1.220771e+003,7.310040e+001
1.222699e+003,7.545462e+001
1.224628e+003,7.774807e+001
1.226557e+003,7.990089e+001
1.228485e+003,8.185262e+001
1.230414e+003,8.358159e+001
1.232342e+003,8.506953e+001
1.234271e+003,8.632323e+001
1.236199e+003,8.736285e+001
1.238128e+003,8.822167e+001
1.240056e+003,8.894562e+001
1.241985e+003,8.957073e+001
1.243913e+003,9.009442e+001
1.245842e+003,9.052731e+001
1.247771e+003,9.086827e+001
1.249699e+003,9.116019e+001
1.251628e+003,9.137968e+001
1.253556e+003,9.152972e+001
1.255485e+003,9.162009e+001
1.257413e+003,9.166119e+001
1.259342e+003,9.164921e+001
1.261270e+003,9.161148e+001
1.263199e+003,9.157365e+001
1.265127e+003,9.158277e+001
1.267056e+003,9.164220e+001
1.268985e+003,9.174469e+001
1.270913e+003,9.190434e+001
1.272842e+003,9.216452e+001
1.274770e+003,9.250613e+001
1.276699e+003,9.291206e+001
1.278627e+003,9.336633e+001
1.280556e+003,9.383418e+001
1.282484e+003,9.427245e+001
1.284413e+003,9.463982e+001
1.286342e+003,9.486031e+001
1.288270e+003,9.493036e+001
1.290199e+003,9.485429e+001
1.292127e+003,9.467917e+001
1.294056e+003,9.447674e+001
1.295984e+003,9.427656e+001
1.297913e+003,9.407932e+001
1.299841e+003,9.392834e+001
1.301770e+003,9.382713e+001
1.303698e+003,9.378309e+001
1.305627e+003,9.379369e+001
1.307556e+003,9.386341e+001
1.309484e+003,9.397849e+001
1.311413e+003,9.409835e+001
1.313341e+003,9.419094e+001
1.315270e+003,9.428184e+001
1.317198e+003,9.434594e+001
1.319127e+003,9.435963e+001
1.321055e+003,9.435484e+001
1.322984e+003,9.433753e+001
1.324912e+003,9.426279e+001
1.326841e+003,9.414316e+001
1.328770e+003,9.394851e+001
1.330698e+003,9.365832e+001
1.332627e+003,9.329304e+001
1.334555e+003,9.287500e+001
1.336484e+003,9.237449e+001
1.338412e+003,9.178519e+001
1.340341e+003,9.108275e+001
1.342269e+003,9.038768e+001
1.344198e+003,8.962167e+001
1.346126e+003,8.872998e+001
1.348055e+003,8.775161e+001
1.349984e+003,8.674811e+001
1.351912e+003,8.578436e+001
1.353841e+003,8.492969e+001
1.355769e+003,8.429192e+001
1.357698e+003,8.405565e+001
1.359626e+003,8.414462e+001
1.361555e+003,8.448921e+001
1.363483e+003,8.496200e+001
1.365412e+003,8.539038e+001
1.367341e+003,8.580131e+001
1.369269e+003,8.642072e+001
1.371198e+003,8.721581e+001
1.373126e+003,8.793568e+001
1.375055e+003,8.807712e+001
1.376983e+003,8.732085e+001
1.378912e+003,8.596468e+001
1.380840e+003,8.475282e+001
1.382769e+003,8.416779e+001
1.384698e+003,8.435210e+001
1.386626e+003,8.527686e+001
1.388555e+003,8.699672e+001
1.390483e+003,8.881067e+001
1.392412e+003,9.058847e+001
1.394340e+003,9.239916e+001
1.396269e+003,9.413728e+001
1.398197e+003,9.529643e+001
1.400126e+003,9.618958e+001
1.402054e+003,9.668706e+001
1.403983e+003,9.698853e+001
1.405911e+003,9.720457e+001
1.407840e+003,9.737888e+001
1.409769e+003,9.746244e+001
1.411697e+003,9.750440e+001
1.413626e+003,9.751093e+001
1.415554e+003,9.752840e+001
1.417483e+003,9.751517e+001
1.419411e+003,9.741537e+001
1.421340e+003,9.733533e+001
1.423268e+003,9.729073e+001
1.425197e+003,9.718080e+001
1.427125e+003,9.706489e+001
1.429054e+003,9.686572e+001
1.430983e+003,9.656364e+001
1.432911e+003,9.614190e+001
1.434840e+003,9.559704e+001
1.436768e+003,9.433176e+001
1.438697e+003,9.259850e+001
1.440625e+003,9.082290e+001
1.442554e+003,8.863288e+001
1.444482e+003,8.650757e+001
1.446411e+003,8.480313e+001
1.448340e+003,8.334356e+001
1.450268e+003,8.250982e+001
1.452197e+003,8.210832e+001
1.454125e+003,8.212879e+001
1.456054e+003,8.256255e+001
1.457982e+003,8.414513e+001
1.459911e+003,8.586191e+001
1.461839e+003,8.756152e+001
1.463768e+003,8.941456e+001
1.465697e+003,9.170682e+001
1.467625e+003,9.342233e+001
1.469554e+003,9.466616e+001
1.471482e+003,9.568500e+001
1.473411e+003,9.673347e+001
1.475339e+003,9.734605e+001
1.477268e+003,9.780491e+001
1.479196e+003,9.813253e+001
1.481125e+003,9.836530e+001
1.483053e+003,9.852102e+001
1.484982e+003,9.867841e+001
1.486911e+003,9.877462e+001
1.488839e+003,9.886102e+001
1.490768e+003,9.889909e+001
1.492696e+003,9.899648e+001
1.494625e+003,9.907950e+001
1.496553e+003,9.915173e+001
1.498482e+003,9.917789e+001
1.500410e+003,9.921314e+001
1.502339e+003,9.925059e+001
1.504267e+003,9.933546e+001
1.506196e+003,9.936629e+001
1.508125e+003,9.931840e+001
1.510053e+003,9.929733e+001
1.511982e+003,9.931548e+001
1.513910e+003,9.934087e+001
1.515839e+003,9.938614e+001
1.517767e+003,9.938605e+001
1.519696e+003,9.943126e+001
1.521624e+003,9.938206e+001
1.523553e+003,9.933320e+001
1.525481e+003,9.934415e+001
1.527410e+003,9.937184e+001
1.529339e+003,9.938786e+001
1.531267e+003,9.941804e+001
1.533196e+003,9.938389e+001
1.535124e+003,9.933125e+001
1.537053e+003,9.936865e+001
1.538981e+003,9.944629e+001
1.540910e+003,9.943170e+001
1.542838e+003,9.941386e+001
1.544767e+003,9.935761e+001
1.546696e+003,9.932902e+001
1.548624e+003,9.935266e+001
1.550553e+003,9.932813e+001
1.552481e+003,9.927401e+001
1.554410e+003,9.921521e+001
1.556338e+003,9.918610e+001
1.558267e+003,9.916531e+001
1.560195e+003,9.884238e+001
1.562124e+003,9.881142e+001
1.564052e+003,9.880524e+001
1.565981e+003,9.876350e+001
1.567910e+003,9.876503e+001
1.569838e+003,9.868088e+001
1.571767e+003,9.854585e+001
1.573695e+003,9.851534e+001
1.575624e+003,9.841327e+001
1.577552e+003,9.821575e+001
1.579481e+003,9.813497e+001
1.581409e+003,9.806602e+001
1.583338e+003,9.797569e+001
1.585266e+003,9.789647e+001
1.587195e+003,9.783678e+001
1.589124e+003,9.778231e+001
1.591052e+003,9.770123e+001
1.592981e+003,9.763790e+001
1.594909e+003,9.760145e+001
1.596838e+003,9.759778e+001
1.598766e+003,9.761059e+001
1.600695e+003,9.762022e+001
1.602623e+003,9.763712e+001
1.604552e+003,9.766578e+001
1.606480e+003,9.769422e+001
1.608409e+003,9.773365e+001
1.610338e+003,9.779086e+001
1.612266e+003,9.785797e+001
1.614195e+003,9.791495e+001
1.616123e+003,9.794453e+001
1.618052e+003,9.797905e+001
1.619980e+003,9.806332e+001
1.621909e+003,9.813153e+001
1.623837e+003,9.816205e+001
1.625766e+003,9.823137e+001
1.627695e+003,9.829179e+001
1.629623e+003,9.834765e+001
1.631552e+003,9.842511e+001
1.633480e+003,9.849802e+001
1.635409e+003,9.852672e+001
1.637337e+003,9.848870e+001
1.639266e+003,9.856591e+001
1.641194e+003,9.862767e+001
1.643123e+003,9.869874e+001
1.645052e+003,9.877347e+001
1.646980e+003,9.877775e+001
1.648909e+003,9.876639e+001
1.650837e+003,9.884981e+001
1.652766e+003,9.887488e+001
1.654694e+003,9.867296e+001
1.656623e+003,9.868452e+001
1.658551e+003,9.874609e+001
1.660480e+003,9.876081e+001
1.662408e+003,9.872277e+001
1.664337e+003,9.864867e+001
1.666266e+003,9.862920e+001
1.668194e+003,9.859195e+001
1.670123e+003,9.849603e+001
1.672051e+003,9.843757e+001
1.673980e+003,9.841267e+001
1.675908e+003,9.830383e+001
1.677837e+003,9.826104e+001
1.679765e+003,9.820518e+001
1.681694e+003,9.813197e+001
1.683622e+003,9.804030e+001
1.685551e+003,9.783599e+001
1.687479e+003,9.777142e+001
1.689408e+003,9.764349e+001
1.691337e+003,9.748536e+001
1.693265e+003,9.739154e+001
1.695194e+003,9.722582e+001
1.697122e+003,9.688494e+001
1.699051e+003,9.667110e+001
1.700979e+003,9.609772e+001
1.702908e+003,9.575249e+001
1.704836e+003,9.538782e+001
1.706765e+003,9.472692e+001
1.708694e+003,9.409838e+001
1.710622e+003,9.338580e+001
1.712551e+003,9.260791e+001
1.714479e+003,9.176074e+001
1.716408e+003,9.075716e+001
1.718336e+003,8.957665e+001
1.720265e+003,8.872039e+001
1.722193e+003,8.809600e+001
1.724122e+003,8.719316e+001
1.726051e+003,8.620656e+001
1.727979e+003,8.502103e+001
1.729908e+003,8.332436e+001
1.731836e+003,8.141682e+001
1.733765e+003,7.838184e+001
1.735693e+003,7.359122e+001
1.737622e+003,7.031518e+001
1.739550e+003,6.515435e+001
1.741479e+003,5.913120e+001
1.743407e+003,5.363834e+001
1.745336e+003,4.870203e+001
1.747265e+003,4.511999e+001
1.749193e+003,4.310114e+001
1.751122e+003,4.264318e+001
1.753050e+003,4.379835e+001
1.754979e+003,4.558711e+001
1.756907e+003,4.908301e+001
1.758836e+003,5.325574e+001
1.760764e+003,5.762681e+001
1.762693e+003,6.289328e+001
1.764621e+003,6.709678e+001
1.766550e+003,7.028103e+001
1.768479e+003,7.349882e+001
1.770407e+003,7.592147e+001
1.772336e+003,7.837477e+001
1.774264e+003,8.063375e+001
1.776193e+003,8.247421e+001
1.778121e+003,8.435174e+001
1.780050e+003,8.638863e+001
1.781978e+003,8.852740e+001
1.783907e+003,9.043005e+001
1.785835e+003,9.228036e+001
1.787764e+003,9.378574e+001
1.789693e+003,9.490616e+001
1.791621e+003,9.587772e+001
1.793550e+003,9.668396e+001
1.795478e+003,9.721085e+001
1.797407e+003,9.761724e+001
1.799335e+003,9.793453e+001
1.801264e+003,9.820586e+001
1.803192e+003,9.842242e+001
1.805121e+003,9.859165e+001
1.807049e+003,9.873329e+001
1.808978e+003,9.885746e+001
1.810907e+003,9.895905e+001
1.812835e+003,9.905879e+001
1.814764e+003,9.917171e+001
1.816692e+003,9.926419e+001
1.818621e+003,9.934296e+001
1.820549e+003,9.943607e+001
1.822478e+003,9.951380e+001
1.824406e+003,9.959190e+001
1.826335e+003,9.967747e+001
1.828264e+003,9.978863e+001
1.830192e+003,9.984287e+001
1.832121e+003,9.990640e+001
1.834049e+003,1.000008e+002
1.835978e+003,1.000882e+002
1.837906e+003,1.001622e+002
1.839835e+003,1.002468e+002
1.841763e+003,1.003320e+002
1.843692e+003,1.003774e+002
1.845620e+003,1.003860e+002
1.847549e+003,1.004296e+002
1.849478e+003,1.004654e+002
1.851406e+003,1.005257e+002
1.853335e+003,1.005868e+002
1.855263e+003,1.006262e+002
1.857192e+003,1.006459e+002
1.859120e+003,1.006704e+002
1.861049e+003,1.007011e+002
1.862977e+003,1.007322e+002
1.864906e+003,1.007613e+002
1.866834e+003,1.007882e+002
1.868763e+003,1.007709e+002
1.870692e+003,1.007752e+002
1.872620e+003,1.008158e+002
1.874549e+003,1.008472e+002
1.876477e+003,1.008714e+002
1.878406e+003,1.009013e+002
1.880334e+003,1.009167e+002
1.882263e+003,1.009215e+002
1.884191e+003,1.009270e+002
1.886120e+003,1.009618e+002
1.888048e+003,1.009965e+002
1.889977e+003,1.009822e+002
1.891906e+003,1.009807e+002
1.893834e+003,1.010243e+002
1.895763e+003,1.010348e+002
1.897691e+003,1.010542e+002
1.899620e+003,1.010646e+002
1.901548e+003,1.010727e+002
1.903477e+003,1.010890e+002
1.905405e+003,1.011194e+002
1.907334e+003,1.011275e+002
1.909263e+003,1.011096e+002
1.911191e+003,1.011075e+002
1.913120e+003,1.011402e+002
1.915048e+003,1.011755e+002
1.916977e+003,1.011957e+002
1.918905e+003,1.011679e+002
1.920834e+003,1.011847e+002
1.922762e+003,1.011972e+002
1.924691e+003,1.012177e+002
1.926620e+003,1.012493e+002
1.928548e+003,1.012527e+002
1.930477e+003,1.012441e+002
1.932405e+003,1.012439e+002
1.934334e+003,1.012443e+002
1.936262e+003,1.012606e+002
1.938191e+003,1.012685e+002
1.940119e+003,1.012873e+002
1.942048e+003,1.012930e+002
1.943976e+003,1.012745e+002
1.945905e+003,1.012533e+002
1.947833e+003,1.012454e+002
1.949762e+003,1.012484e+002
1.951691e+003,1.012529e+002
1.953619e+003,1.012335e+002
1.955548e+003,1.012135e+002
1.957476e+003,1.012128e+002
1.959405e+003,1.012139e+002
1.961333e+003,1.012035e+002
1.963262e+003,1.011953e+002
1.965190e+003,1.012047e+002
1.967119e+003,1.012061e+002
1.969047e+003,1.012036e+002
1.970976e+003,1.012193e+002
1.972905e+003,1.012313e+002
1.974833e+003,1.012394e+002
1.976762e+003,1.012460e+002
1.978690e+003,1.012540e+002
1.980619e+003,1.012590e+002
1.982547e+003,1.012641e+002
1.984476e+003,1.012617e+002
1.986404e+003,1.012797e+002
1.988333e+003,1.012894e+002
1.990262e+003,1.013035e+002
1.992190e+003,1.012889e+002
1.994119e+003,1.012685e+002
1.996047e+003,1.012807e+002
1.997976e+003,1.012972e+002
1.999904e+003,1.013111e+002
2.001833e+003,1.013199e+002
2.003761e+003,1.013211e+002
2.005690e+003,1.013333e+002
2.007619e+003,1.013373e+002
2.009547e+003,1.013470e+002
2.011476e+003,1.013657e+002
2.013404e+003,1.013828e+002
2.015333e+003,1.013824e+002
2.017261e+003,1.013797e+002
2.019190e+003,1.013974e+002
2.021118e+003,1.014170e+002
2.023047e+003,1.014192e+002
2.024975e+003,1.014229e+002
2.026904e+003,1.014237e+002
2.028833e+003,1.014336e+002
2.030761e+003,1.014395e+002
2.032690e+003,1.014412e+002
2.034618e+003,1.014445e+002
2.036547e+003,1.014403e+002
2.038475e+003,1.014307e+002
2.040404e+003,1.014418e+002
2.042332e+003,1.014506e+002
2.044261e+003,1.014471e+002
2.046189e+003,1.014332e+002
2.048118e+003,1.014184e+002
2.050046e+003,1.014156e+002
2.051975e+003,1.014293e+002
2.053904e+003,1.014423e+002
2.055832e+003,1.014411e+002
2.057761e+003,1.014175e+002
2.059689e+003,1.014053e+002
2.061618e+003,1.014060e+002
2.063546e+003,1.014156e+002
2.065475e+003,1.014169e+002
2.067403e+003,1.014200e+002
2.069332e+003,1.014156e+002
2.071260e+003,1.014151e+002
2.073189e+003,1.014207e+002
2.075118e+003,1.014290e+002
2.077046e+003,1.014226e+002
2.078975e+003,1.014210e+002
2.080903e+003,1.014281e+002
2.082832e+003,1.014467e+002
2.084760e+003,1.014541e+002
2.086689e+003,1.014583e+002
2.088617e+003,1.014644e+002
2.090546e+003,1.014712e+002
2.092475e+003,1.014698e+002
2.094403e+003,1.014684e+002
2.096332e+003,1.014746e+002
2.098260e+003,1.014958e+002
2.100189e+003,1.015026e+002
2.102117e+003,1.015082e+002
2.104046e+003,1.015313e+002
2.105974e+003,1.015515e+002
2.107903e+003,1.015513e+002
2.109832e+003,1.015583e+002
2.111760e+003,1.015621e+002
2.113688e+003,1.015643e+002
2.115617e+003,1.015580e+002
2.117546e+003,1.015623e+002
2.119474e+003,1.015713e+002
2.121403e+003,1.015805e+002
2.123331e+003,1.015900e+002
2.125260e+003,1.016053e+002
2.127188e+003,1.016060e+002
2.129117e+003,1.016194e+002
2.131045e+003,1.016442e+002
2.132974e+003,1.016704e+002
2.134903e+003,1.016798e+002
2.136831e+003,1.016932e+002
2.138760e+003,1.017050e+002
2.140688e+003,1.017143e+002
2.142617e+003,1.017322e+002
2.144545e+003,1.017653e+002
2.146474e+003,1.017916e+002
2.148402e+003,1.018228e+002
2.150331e+003,1.018445e+002
2.152260e+003,1.018491e+002
2.154188e+003,1.018458e+002
2.156117e+003,1.018569e+002
2.158045e+003,1.018762e+002
2.159974e+003,1.019047e+002
2.161902e+003,1.019211e+002
2.163831e+003,1.019390e+002
2.165759e+003,1.019511e+002
2.167688e+003,1.019443e+002
2.169616e+003,1.019335e+002
2.171545e+003,1.019501e+002
2.173474e+003,1.019612e+002
2.175402e+003,1.019685e+002
2.177331e+003,1.019776e+002
2.179259e+003,1.019914e+002
2.181188e+003,1.019933e+002
2.183116e+003,1.019846e+002
2.185045e+003,1.019727e+002
2.186973e+003,1.019706e+002
2.188902e+003,1.019760e+002
2.190831e+003,1.019673e+002
2.192759e+003,1.019591e+002
2.194688e+003,1.019529e+002
2.196616e+003,1.019400e+002
2.198545e+003,1.019388e+002
2.200473e+003,1.019416e+002
2.202402e+003,1.019516e+002
2.204330e+003,1.019407e+002
2.206259e+003,1.019311e+002
2.208188e+003,1.019383e+002
2.210116e+003,1.019476e+002
2.212044e+003,1.019366e+002
2.213973e+003,1.019139e+002
2.215902e+003,1.019038e+002
2.217830e+003,1.018998e+002
2.219759e+003,1.018793e+002
2.221687e+003,1.018793e+002
2.223616e+003,1.018875e+002
2.225544e+003,1.018672e+002
2.227473e+003,1.018419e+002
2.229401e+003,1.018454e+002
2.231330e+003,1.018442e+002
2.233259e+003,1.018455e+002
2.235187e+003,1.018463e+002
2.237116e+003,1.018445e+002
2.239044e+003,1.018471e+002
2.240973e+003,1.018454e+002
2.242901e+003,1.018394e+002
2.244830e+003,1.018454e+002
2.246758e+003,1.018502e+002
2.248687e+003,1.018535e+002
2.250615e+003,1.018443e+002
2.252544e+003,1.018384e+002
2.254473e+003,1.018468e+002
2.256401e+003,1.018492e+002
2.258330e+003,1.018465e+002
2.260258e+003,1.018603e+002
2.262187e+003,1.018754e+002
2.264115e+003,1.018829e+002
2.266044e+003,1.018772e+002
2.267972e+003,1.018565e+002
2.269901e+003,1.018344e+002
2.271830e+003,1.018397e+002
2.273758e+003,1.018572e+002
2.275687e+003,1.018422e+002
2.277615e+003,1.018186e+002
2.279544e+003,1.018121e+002
2.281472e+003,1.018098e+002
2.283401e+003,1.018085e+002
2.285329e+003,1.017969e+002
2.287258e+003,1.017708e+002
2.289187e+003,1.017619e+002
2.291115e+003,1.017677e+002
2.293043e+003,1.017515e+002
2.294972e+003,1.017285e+002
2.296901e+003,1.017118e+002
2.298829e+003,1.017256e+002
2.300758e+003,1.017348e+002
2.302686e+003,1.017220e+002
2.304615e+003,1.017307e+002
2.306543e+003,1.017585e+002
2.308472e+003,1.017891e+002
2.310400e+003,1.018236e+002
2.312329e+003,1.018234e+002
2.314258e+003,1.018483e+002
2.316186e+003,1.018948e+002
2.318115e+003,1.019637e+002
2.320043e+003,1.020364e+002
2.321972e+003,1.020947e+002
2.323900e+003,1.021275e+002
2.325829e+003,1.021877e+002
2.327757e+003,1.022596e+002
2.329686e+003,1.023615e+002
2.331615e+003,1.024343e+002
2.333543e+003,1.025061e+002
2.335472e+003,1.026063e+002
2.337400e+003,1.027274e+002
2.339329e+003,1.027912e+002
2.341257e+003,1.028271e+002
2.343186e+003,1.028579e+002
2.345114e+003,1.027602e+002
2.347043e+003,1.024490e+002
2.348971e+003,1.023404e+002
2.350900e+003,1.025982e+002
2.352829e+003,1.031370e+002
2.354757e+003,1.037230e+002
2.356686e+003,1.043272e+002
2.358614e+003,1.047309e+002
2.360543e+003,1.048930e+002
2.362471e+003,1.048067e+002
2.364400e+003,1.045900e+002
2.366328e+003,1.041877e+002
2.368257e+003,1.037416e+002
2.370186e+003,1.032813e+002
2.372114e+003,1.028371e+002
2.374042e+003,1.024949e+002
2.375971e+003,1.022853e+002
2.377900e+003,1.021397e+002
2.379828e+003,1.020250e+002
2.381757e+003,1.019461e+002
2.383685e+003,1.019064e+002
2.385614e+003,1.018890e+002
2.387542e+003,1.018704e+002
2.389471e+003,1.018533e+002
2.391399e+003,1.018525e+002
2.393328e+003,1.018538e+002
2.395257e+003,1.018510e+002
2.397185e+003,1.018349e+002
2.399114e+003,1.018373e+002
2.401042e+003,1.018379e+002
2.402971e+003,1.018294e+002
2.404899e+003,1.018408e+002
2.406828e+003,1.018377e+002
2.408756e+003,1.018329e+002
2.410685e+003,1.018493e+002
2.412614e+003,1.018664e+002
2.414542e+003,1.018802e+002
2.416471e+003,1.018854e+002
2.418399e+003,1.018867e+002
2.420328e+003,1.018856e+002
2.422256e+003,1.018817e+002
2.424185e+003,1.018865e+002
2.426113e+003,1.018952e+002
2.428042e+003,1.018943e+002
2.429970e+003,1.018960e+002
2.431899e+003,1.019029e+002
2.433828e+003,1.019137e+002
2.435756e+003,1.019184e+002
2.437685e+003,1.019209e+002
2.439613e+003,1.019278e+002
2.441542e+003,1.019306e+002
2.443470e+003,1.019232e+002
2.445399e+003,1.019242e+002
2.447327e+003,1.019272e+002
2.449256e+003,1.019331e+002
2.451185e+003,1.019446e+002
2.453113e+003,1.019372e+002
2.455042e+003,1.019195e+002
2.456970e+003,1.019035e+002
2.458899e+003,1.018892e+002
2.460827e+003,1.018853e+002
2.462756e+003,1.018960e+002
2.464684e+003,1.019052e+002
2.466613e+003,1.019018e+002
2.468542e+003,1.018961e+002
2.470470e+003,1.018853e+002
2.472398e+003,1.018771e+002
2.474327e+003,1.018743e+002
2.476256e+003,1.018620e+002
2.478184e+003,1.018469e+002
2.480113e+003,1.018488e+002
2.482041e+003,1.018627e+002
2.483970e+003,1.018697e+002
2.485898e+003,1.018617e+002
2.487827e+003,1.018480e+002
2.489755e+003,1.018341e+002
2.491684e+003,1.018294e+002
2.493613e+003,1.018254e+002
2.495541e+003,1.018222e+002
2.497470e+003,1.018031e+002
2.499398e+003,1.017928e+002
2.501327e+003,1.018085e+002
2.503255e+003,1.018170e+002
2.505184e+003,1.018112e+002
2.507112e+003,1.018106e+002
2.509041e+003,1.018047e+002
2.510969e+003,1.018032e+002
2.512898e+003,1.017990e+002
2.514827e+003,1.018023e+002
2.516755e+003,1.018033e+002
2.518684e+003,1.017974e+002
2.520612e+003,1.017802e+002
2.522541e+003,1.017720e+002
2.524469e+003,1.017791e+002
2.526398e+003,1.018004e+002
2.528326e+003,1.018020e+002
2.530255e+003,1.017821e+002
2.532184e+003,1.017761e+002
2.534112e+003,1.017800e+002
2.536041e+003,1.017941e+002
2.537969e+003,1.018012e+002
2.539898e+003,1.017889e+002
2.541826e+003,1.017788e+002
2.543755e+003,1.017842e+002
2.545683e+003,1.017909e+002
2.547612e+003,1.017837e+002
2.549541e+003,1.017786e+002
2.551469e+003,1.017827e+002
2.553397e+003,1.017852e+002
2.555326e+003,1.017729e+002
2.557255e+003,1.017547e+002
2.559183e+003,1.017495e+002
2.561112e+003,1.017738e+002
2.563040e+003,1.017871e+002
2.564969e+003,1.017710e+002
2.566897e+003,1.017686e+002
2.568826e+003,1.017836e+002
2.570754e+003,1.017821e+002
2.572683e+003,1.017633e+002
2.574612e+003,1.017481e+002
2.576540e+003,1.017516e+002
2.578469e+003,1.017496e+002
2.580397e+003,1.017360e+002
2.582326e+003,1.017360e+002
2.584254e+003,1.017437e+002
2.586183e+003,1.017561e+002
2.588111e+003,1.017732e+002
2.590040e+003,1.017752e+002
2.591969e+003,1.017713e+002
2.593897e+003,1.017717e+002
2.595826e+003,1.017810e+002
2.597754e+003,1.017898e+002
2.599683e+003,1.017948e+002
2.601611e+003,1.017947e+002
2.603540e+003,1.017945e+002
2.605468e+003,1.017903e+002
2.607397e+003,1.017869e+002
2.609325e+003,1.017968e+002
2.611254e+003,1.017989e+002
2.613183e+003,1.017838e+002
2.615111e+003,1.017590e+002
2.617040e+003,1.017526e+002
2.618968e+003,1.017788e+002
2.620897e+003,1.017944e+002
2.622825e+003,1.017739e+002
2.624754e+003,1.017382e+002
2.626682e+003,1.017319e+002
2.628611e+003,1.017352e+002
2.630540e+003,1.017273e+002
2.632468e+003,1.017089e+002
2.634396e+003,1.017207e+002
2.636325e+003,1.017249e+002
2.638254e+003,1.017098e+002
2.640182e+003,1.017211e+002
2.642111e+003,1.017456e+002
2.644039e+003,1.017486e+002
2.645968e+003,1.017350e+002
2.647896e+003,1.017367e+002
2.649825e+003,1.017432e+002
2.651753e+003,1.017448e+002
2.653682e+003,1.017460e+002
2.655611e+003,1.017388e+002
2.657539e+003,1.017304e+002
2.659468e+003,1.017349e+002
2.661396e+003,1.017454e+002
2.663325e+003,1.017472e+002
2.665253e+003,1.017311e+002
2.667182e+003,1.017303e+002
2.669110e+003,1.017515e+002
2.671039e+003,1.017600e+002
2.672968e+003,1.017368e+002
2.674896e+003,1.017157e+002
2.676825e+003,1.016890e+002
2.678753e+003,1.016669e+002
2.680682e+003,1.016595e+002
2.682610e+003,1.017208e+002
2.684539e+003,1.017610e+002
2.686467e+003,1.017582e+002
2.688396e+003,1.017685e+002
2.690324e+003,1.017732e+002
2.692253e+003,1.017753e+002
2.694182e+003,1.017747e+002
2.696110e+003,1.017869e+002
2.698039e+003,1.017957e+002
2.699967e+003,1.017957e+002
2.701896e+003,1.017942e+002
2.703824e+003,1.017904e+002
2.705753e+003,1.018012e+002
2.707681e+003,1.017981e+002
2.709610e+003,1.017782e+002
2.711539e+003,1.017959e+002
2.713467e+003,1.017955e+002
2.715396e+003,1.017831e+002
2.717324e+003,1.017911e+002
2.719253e+003,1.017659e+002
2.721181e+003,1.017036e+002
2.723110e+003,1.016730e+002
2.725038e+003,1.016422e+002
2.726967e+003,1.016558e+002
2.728896e+003,1.017379e+002
2.730824e+003,1.017617e+002
2.732752e+003,1.017545e+002
2.734681e+003,1.017270e+002
2.736610e+003,1.016818e+002
2.738538e+003,1.017041e+002
2.740467e+003,1.017586e+002
2.742395e+003,1.017513e+002
2.744324e+003,1.017285e+002
2.746252e+003,1.016681e+002
2.748181e+003,1.016113e+002
2.750109e+003,1.016438e+002
2.752038e+003,1.017191e+002
2.753967e+003,1.017524e+002
2.755895e+003,1.017405e+002
2.757824e+003,1.017411e+002
2.759752e+003,1.017596e+002
2.761681e+003,1.017758e+002
2.763609e+003,1.017757e+002
2.765538e+003,1.017745e+002
2.767466e+003,1.017623e+002
2.769395e+003,1.017432e+002
2.771323e+003,1.017174e+002
2.773252e+003,1.016481e+002
2.775181e+003,1.016264e+002
2.777109e+003,1.017080e+002
2.779038e+003,1.017539e+002
2.780966e+003,1.017450e+002
2.782895e+003,1.017380e+002
2.784823e+003,1.017244e+002
2.786752e+003,1.016632e+002
2.788680e+003,1.015816e+002
2.790609e+003,1.015676e+002
2.792538e+003,1.016039e+002
2.794466e+003,1.016208e+002
2.796395e+003,1.015733e+002
2.798323e+003,1.015234e+002
2.800252e+003,1.015624e+002
2.802180e+003,1.016244e+002
2.804109e+003,1.016235e+002
2.806037e+003,1.016023e+002
2.807966e+003,1.015554e+002
2.809895e+003,1.015124e+002
2.811823e+003,1.015587e+002
2.813751e+003,1.015859e+002
2.815680e+003,1.015707e+002
2.817609e+003,1.015569e+002
2.819537e+003,1.015339e+002
2.821466e+003,1.015049e+002
2.823394e+003,1.014774e+002
2.825323e+003,1.014674e+002
2.827251e+003,1.014699e+002
2.829180e+003,1.014690e+002
2.831108e+003,1.014507e+002
2.833037e+003,1.014068e+002
2.834966e+003,1.013534e+002
2.836894e+003,1.012862e+002
2.838823e+003,1.012315e+002
2.840751e+003,1.012962e+002
2.842680e+003,1.013378e+002
2.844608e+003,1.012838e+002
2.846537e+003,1.011507e+002
2.848465e+003,1.010592e+002
2.850394e+003,1.010159e+002
2.852323e+003,1.009488e+002
2.854251e+003,1.009102e+002
2.856180e+003,1.008994e+002
2.858108e+003,1.008870e+002
2.860037e+003,1.008952e+002
2.861965e+003,1.009582e+002
2.863894e+003,1.010122e+002
2.865822e+003,1.010139e+002
2.867751e+003,1.010017e+002
2.869679e+003,1.009480e+002
2.871608e+003,1.008128e+002
2.873537e+003,1.006992e+002
2.875465e+003,1.007161e+002
2.877394e+003,1.007550e+002
2.879322e+003,1.007511e+002
2.881251e+003,1.007519e+002
2.883179e+003,1.007518e+002
2.885108e+003,1.007635e+002
2.887036e+003,1.007917e+002
2.888965e+003,1.008319e+002
2.890894e+003,1.008637e+002
2.892822e+003,1.008437e+002
2.894750e+003,1.007515e+002
2.896679e+003,1.007282e+002
2.898608e+003,1.008141e+002
2.900536e+003,1.008296e+002
2.902465e+003,1.007566e+002
2.904393e+003,1.007006e+002
2.906322e+003,1.007106e+002
2.908250e+003,1.006501e+002
2.910179e+003,1.004992e+002
2.912107e+003,1.003165e+002
2.914036e+003,1.001768e+002
2.915965e+003,1.001048e+002
2.917893e+003,1.000338e+002
2.919822e+003,9.999842e+001
2.921750e+003,9.994876e+001
2.923679e+003,9.984316e+001
2.925607e+003,9.974620e+001
2.927536e+003,9.961278e+001
2.929464e+003,9.946474e+001
2.931393e+003,9.947142e+001
2.933322e+003,9.950645e+001
2.935250e+003,9.943575e+001
2.937179e+003,9.931274e+001
2.939107e+003,9.911966e+001
2.941036e+003,9.884650e+001
2.942964e+003,9.851390e+001
2.944893e+003,9.828992e+001
2.946821e+003,9.824089e+001
2.948750e+003,9.835337e+001
2.950678e+003,9.847277e+001
2.952607e+003,9.858118e+001
2.954536e+003,9.884470e+001
2.956464e+003,9.911018e+001
2.958393e+003,9.928182e+001
2.960321e+003,9.939156e+001
2.962250e+003,9.950003e+001
2.964178e+003,9.967482e+001
2.966107e+003,9.980949e+001
2.968035e+003,9.987876e+001
2.969964e+003,9.992805e+001
2.971893e+003,9.990582e+001
2.973821e+003,9.984110e+001
2.975750e+003,9.985085e+001
2.977678e+003,9.983620e+001
2.979607e+003,9.973631e+001
2.981535e+003,9.969284e+001
2.983464e+003,9.970242e+001
2.985392e+003,9.964230e+001
2.987321e+003,9.945704e+001
2.989250e+003,9.918931e+001
2.991178e+003,9.882850e+001
2.993106e+003,9.854449e+001
2.995035e+003,9.840735e+001
2.996964e+003,9.827523e+001
2.998892e+003,9.826830e+001
3.000821e+003,9.841705e+001
3.002749e+003,9.857877e+001
3.004678e+003,9.876430e+001
3.006606e+003,9.900302e+001
3.008535e+003,9.918487e+001
3.010463e+003,9.929111e+001
3.012392e+003,9.943150e+001
3.014321e+003,9.962802e+001
3.016249e+003,9.985775e+001
3.018178e+003,1.000826e+002
3.020106e+003,1.002849e+002
3.022035e+003,1.004739e+002
3.023963e+003,1.005989e+002
3.025892e+003,1.007579e+002
3.027820e+003,1.008849e+002
3.029749e+003,1.008985e+002
3.031677e+003,1.008885e+002
3.033606e+003,1.008782e+002
3.035535e+003,1.009596e+002
3.037463e+003,1.010714e+002
3.039392e+003,1.010535e+002
3.041320e+003,1.009849e+002
3.043249e+003,1.009975e+002
3.045177e+003,1.010706e+002
3.047106e+003,1.011760e+002
3.049034e+003,1.011825e+002
3.050963e+003,1.011449e+002
3.052892e+003,1.011896e+002
3.054820e+003,1.012027e+002
3.056749e+003,1.012171e+002
3.058677e+003,1.012872e+002
3.060606e+003,1.013291e+002
3.062534e+003,1.012851e+002
3.064463e+003,1.012186e+002
3.066391e+003,1.011430e+002
3.068320e+003,1.011465e+002
3.070249e+003,1.012381e+002
3.072177e+003,1.012989e+002
3.074105e+003,1.012681e+002
3.076034e+003,1.011770e+002
3.077963e+003,1.010987e+002
3.079891e+003,1.010844e+002
3.081820e+003,1.011151e+002
3.083748e+003,1.011205e+002
3.085677e+003,1.011490e+002
3.087605e+003,1.011801e+002
3.089534e+003,1.011659e+002
3.091462e+003,1.011976e+002
3.093391e+003,1.012893e+002
3.095320e+003,1.013211e+002
3.097248e+003,1.012903e+002
3.099177e+003,1.012461e+002
3.101105e+003,1.012463e+002
3.103034e+003,1.013011e+002
3.104962e+003,1.013046e+002
3.106891e+003,1.012373e+002
3.108819e+003,1.011881e+002
3.110748e+003,1.012460e+002
3.112677e+003,1.012505e+002
3.114605e+003,1.011515e+002
3.116534e+003,1.010729e+002
3.118462e+003,1.010643e+002
3.120391e+003,1.010910e+002
3.122319e+003,1.012008e+002
3.124248e+003,1.013149e+002
3.126176e+003,1.013476e+002
3.128105e+003,1.012996e+002
3.130033e+003,1.012699e+002
3.131962e+003,1.013083e+002
3.133891e+003,1.013272e+002
3.135819e+003,1.012928e+002
3.137748e+003,1.012034e+002
3.139676e+003,1.011931e+002
3.141605e+003,1.013133e+002
3.143533e+003,1.013726e+002
3.145462e+003,1.013612e+002
3.147390e+003,1.013661e+002
3.149319e+003,1.013222e+002
3.151248e+003,1.012060e+002
3.153176e+003,1.011754e+002
3.155104e+003,1.012613e+002
3.157033e+003,1.013568e+002
3.158962e+003,1.013936e+002
3.160890e+003,1.013945e+002
3.162819e+003,1.013914e+002
3.164747e+003,1.013844e+002
3.166676e+003,1.013954e+002
3.168604e+003,1.014041e+002
3.170533e+003,1.013919e+002
3.172461e+003,1.014021e+002
3.174390e+003,1.014161e+002
3.176319e+003,1.013909e+002
3.178247e+003,1.013663e+002
3.180176e+003,1.013882e+002
3.182104e+003,1.014137e+002
3.184033e+003,1.013967e+002
3.185961e+003,1.013740e+002
3.187890e+003,1.013564e+002
3.189818e+003,1.013633e+002
3.191747e+003,1.014002e+002
3.193676e+003,1.014179e+002
3.195604e+003,1.014139e+002
3.197532e+003,1.013930e+002
3.199461e+003,1.013855e+002
3.201390e+003,1.013802e+002
3.203318e+003,1.013792e+002
3.205247e+003,1.013742e+002
3.207175e+003,1.013623e+002
3.209104e+003,1.013920e+002
3.211032e+003,1.014117e+002
3.212961e+003,1.013689e+002
3.214889e+003,1.013329e+002
3.216818e+003,1.013184e+002
3.218747e+003,1.013225e+002
3.220675e+003,1.013913e+002
3.222604e+003,1.014103e+002
3.224532e+003,1.013946e+002
3.226461e+003,1.013915e+002
3.228389e+003,1.013755e+002
3.230318e+003,1.013206e+002
3.232246e+003,1.011875e+002
3.234175e+003,1.011475e+002
3.236104e+003,1.012760e+002
3.238032e+003,1.013875e+002
3.239961e+003,1.014002e+002
3.241889e+003,1.013894e+002
3.243818e+003,1.013335e+002
3.245746e+003,1.011981e+002
3.247675e+003,1.012042e+002
3.249603e+003,1.013430e+002
3.251532e+003,1.014234e+002
3.253460e+003,1.013654e+002
3.255389e+003,1.012590e+002
3.257318e+003,1.013107e+002
3.259246e+003,1.013930e+002
3.261175e+003,1.014012e+002
3.263103e+003,1.014071e+002
3.265032e+003,1.013997e+002
3.266960e+003,1.013298e+002
3.268889e+003,1.011721e+002
3.270817e+003,1.010686e+002
3.272746e+003,1.011471e+002
3.274675e+003,1.012184e+002
3.276603e+003,1.013122e+002
3.278531e+003,1.013839e+002
3.280460e+003,1.013807e+002
3.282389e+003,1.013919e+002
3.284317e+003,1.013841e+002
3.286246e+003,1.013928e+002
3.288174e+003,1.013888e+002
3.290103e+003,1.012656e+002
3.292031e+003,1.011171e+002
3.293960e+003,1.010867e+002
3.295888e+003,1.011439e+002
3.297817e+003,1.012687e+002
3.299746e+003,1.013438e+002
3.301674e+003,1.012892e+002
3.303603e+003,1.011277e+002
3.305531e+003,1.010222e+002
3.307460e+003,1.010578e+002
3.309388e+003,1.011652e+002
3.311317e+003,1.013218e+002
3.313245e+003,1.014155e+002
3.315174e+003,1.014207e+002
3.317103e+003,1.014155e+002
3.319031e+003,1.014339e+002
3.320960e+003,1.014561e+002
3.322888e+003,1.014045e+002
3.324817e+003,1.012922e+002
3.326745e+003,1.013254e+002
3.328674e+003,1.014431e+002
3.330602e+003,1.014857e+002
3.332531e+003,1.015100e+002
3.334459e+003,1.014572e+002
3.336388e+003,1.012927e+002
3.338317e+003,1.011923e+002
3.340245e+003,1.012841e+002
3.342174e+003,1.013486e+002
3.344102e+003,1.014186e+002
3.346031e+003,1.015066e+002
3.347959e+003,1.014462e+002
3.349888e+003,1.012968e+002
3.351816e+003,1.013448e+002
3.353745e+003,1.015164e+002
3.355674e+003,1.015504e+002
3.357602e+003,1.015062e+002
3.359531e+003,1.014091e+002
3.361459e+003,1.014175e+002
3.363388e+003,1.014551e+002
3.365316e+003,1.013198e+002
3.367245e+003,1.011857e+002
3.369173e+003,1.011970e+002
3.371102e+003,1.013316e+002
3.373031e+003,1.014884e+002
3.374959e+003,1.015209e+002
3.376887e+003,1.014937e+002
3.378816e+003,1.014901e+002
3.380745e+003,1.015008e+002
3.382673e+003,1.015824e+002
3.384602e+003,1.016209e+002
3.386530e+003,1.016081e+002
3.388459e+003,1.015295e+002
3.390387e+003,1.013664e+002
3.392316e+003,1.013263e+002
3.394244e+003,1.014388e+002
3.396173e+003,1.014958e+002
3.398102e+003,1.013902e+002
3.400030e+003,1.012353e+002
3.401959e+003,1.012766e+002
3.403887e+003,1.014799e+002
3.405816e+003,1.016115e+002
3.407744e+003,1.015437e+002
3.409673e+003,1.014617e+002
3.411601e+003,1.014540e+002
3.413530e+003,1.015140e+002
3.415458e+003,1.016669e+002
3.417387e+003,1.017243e+002
3.419316e+003,1.016720e+002
3.421244e+003,1.016710e+002
3.423173e+003,1.017654e+002
3.425101e+003,1.017502e+002
3.427030e+003,1.016154e+002
3.428958e+003,1.014942e+002
3.430887e+003,1.015079e+002
3.432815e+003,1.014840e+002
3.434744e+003,1.013736e+002
3.436673e+003,1.014079e+002
3.438601e+003,1.015894e+002
3.440530e+003,1.017791e+002
3.442458e+003,1.018424e+002
3.444387e+003,1.018332e+002
3.446315e+003,1.018228e+002
3.448244e+003,1.018165e+002
3.450172e+003,1.018628e+002
3.452101e+003,1.018973e+002
3.454030e+003,1.018971e+002
3.455958e+003,1.018930e+002
3.457886e+003,1.018029e+002
3.459815e+003,1.017140e+002
3.461744e+003,1.017910e+002
3.463672e+003,1.017936e+002
3.465601e+003,1.015901e+002
3.467529e+003,1.013826e+002
3.469458e+003,1.014511e+002
3.471386e+003,1.017488e+002
3.473315e+003,1.019174e+002
3.475243e+003,1.019168e+002
3.477172e+003,1.018237e+002
3.479101e+003,1.016442e+002
3.481029e+003,1.017453e+002
3.482958e+003,1.019243e+002
3.484886e+003,1.018234e+002
3.486815e+003,1.017100e+002
3.488743e+003,1.018000e+002
3.490672e+003,1.018379e+002
3.492600e+003,1.017370e+002
3.494529e+003,1.016389e+002
3.496458e+003,1.015520e+002
3.498386e+003,1.015445e+002
3.500315e+003,1.015998e+002
3.502243e+003,1.015034e+002
3.504172e+003,1.016135e+002
3.506100e+003,1.018227e+002
3.508029e+003,1.019332e+002
3.509957e+003,1.019268e+002
3.511886e+003,1.017674e+002
3.513814e+003,1.016887e+002
3.515743e+003,1.018454e+002
3.517672e+003,1.019910e+002
3.519600e+003,1.020353e+002
3.521529e+003,1.019149e+002
3.523457e+003,1.017042e+002
3.525386e+003,1.018220e+002
3.527314e+003,1.020718e+002
3.529243e+003,1.021128e+002
3.531171e+003,1.020906e+002
3.533100e+003,1.020732e+002
3.535029e+003,1.019544e+002
3.536957e+003,1.018734e+002
3.538885e+003,1.019907e+002
3.540814e+003,1.019605e+002
3.542743e+003,1.018080e+002
3.544671e+003,1.017278e+002
3.546600e+003,1.018538e+002
3.548528e+003,1.020118e+002
3.550457e+003,1.020431e+002
3.552385e+003,1.020980e+002
3.554314e+003,1.021653e+002
3.556242e+003,1.021508e+002
3.558171e+003,1.021280e+002
3.560100e+003,1.020602e+002
3.562028e+003,1.020735e+002
3.563957e+003,1.022508e+002
3.565885e+003,1.023724e+002
3.567814e+003,1.021978e+002
3.569742e+003,1.020093e+002
3.571671e+003,1.020876e+002
3.573599e+003,1.021733e+002
3.575528e+003,1.021667e+002
3.577457e+003,1.021378e+002
3.579385e+003,1.020853e+002
3.581314e+003,1.020111e+002
3.583242e+003,1.019643e+002
3.585171e+003,1.019714e+002
3.587099e+003,1.020989e+002
3.589028e+003,1.021569e+002
3.590956e+003,1.021343e+002
3.592885e+003,1.021717e+002
3.594813e+003,1.022024e+002
3.596742e+003,1.021548e+002
3.598671e+003,1.020745e+002
3.600599e+003,1.020658e+002
3.602528e+003,1.020770e+002
3.604456e+003,1.021139e+002
3.606385e+003,1.022208e+002
3.608313e+003,1.022922e+002
3.610242e+003,1.022662e+002
3.612170e+003,1.022806e+002
3.614099e+003,1.022201e+002
3.616028e+003,1.022427e+002
3.617956e+003,1.023294e+002
3.619885e+003,1.021497e+002
3.621813e+003,1.020372e+002
3.623742e+003,1.021220e+002
3.625670e+003,1.022554e+002
3.627599e+003,1.024922e+002
3.629527e+003,1.024064e+002
3.631456e+003,1.021423e+002
3.633385e+003,1.021218e+002
3.635313e+003,1.021285e+002
3.637241e+003,1.021520e+002
3.639170e+003,1.021538e+002
3.641099e+003,1.021722e+002
3.643027e+003,1.021566e+002
3.644956e+003,1.022322e+002
3.646884e+003,1.023784e+002
3.648813e+003,1.022877e+002
3.650741e+003,1.020233e+002
3.652670e+003,1.020104e+002
3.654598e+003,1.021384e+002
3.656527e+003,1.020492e+002
3.658456e+003,1.018457e+002
3.660384e+003,1.018651e+002
3.662313e+003,1.020145e+002
3.664241e+003,1.021050e+002
3.666170e+003,1.021464e+002
3.668098e+003,1.022771e+002
3.670027e+003,1.023302e+002
3.671955e+003,1.021666e+002
3.673884e+003,1.022487e+002
3.675813e+003,1.021715e+002
3.677741e+003,1.020195e+002
3.679670e+003,1.020690e+002
3.681598e+003,1.020663e+002
3.683527e+003,1.020647e+002
3.685455e+003,1.020995e+002
3.687384e+003,1.020935e+002
3.689312e+003,1.020208e+002
3.691241e+003,1.020544e+002
3.693169e+003,1.020386e+002
3.695098e+003,1.020417e+002
3.697027e+003,1.020718e+002
3.698955e+003,1.021470e+002
3.700884e+003,1.021989e+002
3.702812e+003,1.021645e+002
3.704741e+003,1.021648e+002
3.706669e+003,1.022291e+002
3.708598e+003,1.023218e+002
3.710526e+003,1.023414e+002
3.712455e+003,1.021852e+002
3.714384e+003,1.020486e+002
3.716312e+003,1.020738e+002
3.718240e+003,1.021471e+002
3.720169e+003,1.021801e+002
3.722098e+003,1.021937e+002
3.724026e+003,1.021935e+002
3.725955e+003,1.022001e+002
3.727883e+003,1.021517e+002
3.729812e+003,1.022100e+002
3.731740e+003,1.022673e+002
3.733669e+003,1.022457e+002
3.735597e+003,1.021552e+002
3.737526e+003,1.019508e+002
3.739455e+003,1.019883e+002
3.741383e+003,1.021813e+002
3.743312e+003,1.024953e+002
3.745240e+003,1.024466e+002
3.747169e+003,1.023024e+002
3.749097e+003,1.024817e+002
3.751026e+003,1.024612e+002
3.752954e+003,1.022174e+002
3.754883e+003,1.021593e+002
3.756812e+003,1.022197e+002
3.758740e+003,1.022173e+002
3.760669e+003,1.021749e+002
3.762597e+003,1.021747e+002
3.764526e+003,1.022256e+002
3.766454e+003,1.021647e+002
3.768383e+003,1.022209e+002
3.770311e+003,1.021935e+002
3.772240e+003,1.021284e+002
3.774168e+003,1.021624e+002
3.776097e+003,1.021755e+002
3.778026e+003,1.021409e+002
3.779954e+003,1.020791e+002
3.781883e+003,1.020963e+002
3.783811e+003,1.021334e+002
3.785740e+003,1.020924e+002
3.787668e+003,1.020782e+002
3.789597e+003,1.020580e+002
3.791525e+003,1.020725e+002
3.793454e+003,1.021342e+002
3.795383e+003,1.022193e+002
3.797311e+003,1.022038e+002
3.799240e+003,1.022936e+002
3.801168e+003,1.023581e+002
3.803097e+003,1.021430e+002
3.805025e+003,1.021848e+002
3.806954e+003,1.022133e+002
3.808882e+003,1.020834e+002
3.810811e+003,1.020929e+002
3.812740e+003,1.021420e+002
3.814668e+003,1.022471e+002
3.816596e+003,1.021889e+002
3.818525e+003,1.021582e+002
3.820454e+003,1.022601e+002
3.822382e+003,1.020833e+002
3.824311e+003,1.020571e+002
3.826239e+003,1.020893e+002
3.828168e+003,1.020394e+002
3.830096e+003,1.020960e+002
3.832025e+003,1.021443e+002
3.833953e+003,1.021059e+002
3.835882e+003,1.020361e+002
3.837811e+003,1.021385e+002
3.839739e+003,1.021057e+002
3.841668e+003,1.020244e+002
3.843596e+003,1.019345e+002
3.845525e+003,1.018517e+002
3.847453e+003,1.019766e+002
3.849382e+003,1.021117e+002
3.851310e+003,1.023239e+002
3.853239e+003,1.025571e+002
3.855167e+003,1.021211e+002
3.857096e+003,1.019224e+002
3.859025e+003,1.019890e+002
3.860953e+003,1.020938e+002
3.862882e+003,1.021213e+002
3.864810e+003,1.020781e+002
3.866739e+003,1.020337e+002
3.868667e+003,1.021881e+002
3.870596e+003,1.021017e+002
3.872524e+003,1.020109e+002
3.874453e+003,1.019875e+002
3.876382e+003,1.019692e+002
3.878310e+003,1.020820e+002
3.880239e+003,1.020742e+002
3.882167e+003,1.019586e+002
3.884096e+003,1.019655e+002
3.886024e+003,1.018665e+002
3.887953e+003,1.019104e+002
3.889881e+003,1.020611e+002
3.891810e+003,1.019666e+002
3.893739e+003,1.018688e+002
3.895667e+003,1.019295e+002
3.897595e+003,1.020185e+002
3.899524e+003,1.020675e+002
3.901453e+003,1.020798e+002
3.903381e+003,1.020714e+002
3.905310e+003,1.019431e+002
3.907238e+003,1.018921e+002
3.909167e+003,1.019016e+002
3.911095e+003,1.019313e+002
3.913024e+003,1.019711e+002
3.914952e+003,1.020200e+002
3.916881e+003,1.020154e+002
3.918810e+003,1.019563e+002
3.920738e+003,1.019327e+002
3.922667e+003,1.019511e+002
3.924595e+003,1.019414e+002
3.926524e+003,1.019120e+002
3.928452e+003,1.019559e+002
3.930381e+003,1.019433e+002
3.932309e+003,1.018734e+002
3.934238e+003,1.018242e+002
3.936167e+003,1.018653e+002
3.938095e+003,1.018981e+002
3.940024e+003,1.019174e+002
3.941952e+003,1.019605e+002
3.943881e+003,1.019267e+002
3.945809e+003,1.019072e+002
3.947738e+003,1.019117e+002
3.949666e+003,1.018847e+002
3.951595e+003,1.018873e+002
3.953523e+003,1.018970e+002
3.955452e+003,1.018670e+002
3.957380e+003,1.018436e+002
3.959309e+003,1.018626e+002
3.961238e+003,1.018805e+002
3.963166e+003,1.018640e+002
3.965095e+003,1.018417e+002
3.967023e+003,1.018631e+002
3.968952e+003,1.018757e+002
3.970880e+003,1.018603e+002
3.972809e+003,1.018513e+002
3.974737e+003,1.018247e+002
3.976666e+003,1.018126e+002
3.978594e+003,1.018288e+002
3.980523e+003,1.018218e+002
3.982452e+003,1.017676e+002
3.984380e+003,1.017461e+002
3.986309e+003,1.017996e+002
3.988237e+003,1.018446e+002
3.990166e+003,1.018360e+002
3.992094e+003,1.018350e+002
3.994023e+003,1.018427e+002
3.995951e+003,1.018085e+002
3.997880e+003,1.017886e+002
3.999809e+003,1.017866e+002
4.001737e+003,0.000000e+000
